{
  "AcquisitionMatrixPE": 64,
  "AcquisitionNumber": 1,
  "AcquisitionTime": "10:57:10.570000",
  "BaseResolution": 64,
  "BodyPartExamined": "BRAIN",
  "ConsistencyInfo": "N4_VE11P_LATEST_20161021",
  "ConversionSoftware": "dcm2niix",
  "ConversionSoftwareVersion": "v1.0.20190410  GCC6.3.0",
  "DeviceSerialNumber": "51066",
  "DwellTime": 3e-05,
  "EchoNumber": 2,
  "EchoTime": 0.00765,
  "EchoTime1": 0.00519,
  "EchoTime2": 0.00765,
  "FlipAngle": 60,
  "ImageOrientationPatientDICOM": [1, 0, 0, 0, 1, 0],
  "ImageType": [
    "ORIGINAL",
    "PRIMARY",
    "P",
    "ND"
],
  "ImagingFrequency": 123.239,
  "InPlanePhaseEncodingDirectionDICOM": "ROW",
  "InstitutionAddress": "Blackburn_Road_770_Clayton_Victoria_AU_3168",
  "InstitutionName": "MONASH_BIOMEDICAL_IMAGING",
  "InstitutionalDepartmentName": "Department",
  "MRAcquisitionType": "2D",
  "MagneticFieldStrength": 3,
  "Manufacturer": "Siemens",
  "ManufacturersModelName": "Biograph_mMR",
  "Modality": "MR",
  "PartialFourier": 1,
  "PatientPosition": "HFS",
  "PercentPhaseFOV": 100,
  "PhaseEncodingDirection": "i",
  "PhaseEncodingSteps": 64,
  "PhaseResolution": 1,
  "PixelBandwidth": 260,
  "ProcedureStepDescription": "MR-PET_Scan",
  "ProtocolName": "gre_field_mapping",
  "PulseSequenceDetails": "%SiemensSeq%_gre_field_mapping",
  "ReceiveCoilActiveElements": "HEA;HEP",
  "ReceiveCoilName": "HeadNeck_MRPET",
  "ReconMatrixPE": 64,
  "RepetitionTime": 0.488,
  "SAR": 0.132991,
  "ScanningSequence": "GR",
  "SequenceName": "_fm2d2r",
  "SequenceVariant": "SP",
  "SeriesDescription": "gre_field_mapping",
  "SeriesNumber": 12,
  "ShimSetting": [-8352, -1006, -3780, 581, -421, 414, -429, -147],
  "SliceThickness": 3,
  "SliceTiming": [0.000735, -0.001, -0.001, -0.001, -0.001, -0.001, -0.001, -0.001, -0.001, -0.001, -0.001, -0.001, -0.001, -0.001, -0.001, -0.001, -0.001, -0.001, -0.001, -0.001, -0.001, -0.001, -0.001, -0.001, -0.001, -0.001, -0.001, -0.001, -0.001, -0.001, -0.001, -0.001, -0.001, -0.001, -0.001, -0.001, -0.001, -0.001, -0.001, -0.001, -0.001, -0.001, -0.001, -0.001],
  "SoftwareVersions": "syngo_MR_E11",
  "SpacingBetweenSlices": 3,
  "StationName": "MRC51066",
  "TxRefAmp": 296.14,
  "dcmmeta_affine": [
    [-2.96875, 0.0, 0.0, 96.88308715820312],
    [0.0, 2.96875, 0.0, -73.44300842285156],
    [0.0, 0.0, 3.0, -22.19084930419922],
    [0.0, 0.0, 0.0, 1.0]
],
  "dcmmeta_reorient_transform": [
    [0.0, -1.0, 0.0, 63.0],
    [1.0, 0.0, 0.0, 0.0],
    [0.0, 0.0, -1.0, 43.0],
    [0.0, 0.0, 0.0, 1.0]
],
  "dcmmeta_shape": [64, 64, 44],
  "dcmmeta_slice_dim": 2,
  "dcmmeta_version": 0.6,
  "global": {
    "const": {
      "AcquisitionMatrix": [0, 64, 64, 0],
      "AcquisitionNumber": 1,
      "Allergies": "None",
      "AngioFlag": "N",
      "BitsAllocated": 16,
      "BitsStored": 12,
      "BodyPartExamined": "BRAIN",
      "Columns": 64,
      "EchoNumbers": 2,
      "EchoTime": 7.65,
      "EchoTrainLength": 0,
      "FlipAngle": 60.0,
      "HighBit": 11,
      "ImageOrientationPatient": [1.0, 0.0, 0.0, 0.0, 1.0, 0.0],
      "ImageType": [
        "ORIGINAL",
        "PRIMARY",
        "P",
        "ND"
],
      "ImagedNucleus": "1H",
      "ImagingFrequency": 123.239228,
      "InPlanePhaseEncodingDirection": "ROW",
      "MRAcquisitionType": "2D",
      "MagneticFieldStrength": 3.0,
      "Manufacturer": "SIEMENS",
      "ManufacturerModelName": "Biograph_mMR",
      "MedicalAlerts": "None",
      "Modality": "MR",
      "NumberOfAverages": 1.0,
      "NumberOfPhaseEncodingSteps": 64,
      "PercentPhaseFieldOfView": 100.0,
      "PercentSampling": 100.0,
      "PerformedProcedureStepStartTime": "102956.311000",
      "PhotometricInterpretation": "MONOCHROME2",
      "PixelBandwidth": 260.0,
      "PixelRepresentation": 0,
      "PixelSpacing": [2.96875, 2.96875],
      "PregnancyStatus": 4,
      "ProtocolName": "gre_field_mapping",
      "RepetitionTime": 488.0,
      "RequestAttributesSequence": [
        {
          "RequestedProcedureID": "MMH004",
          "ScheduledProcedureStepDescription": "MR-PET Scan",
          "ScheduledProcedureStepID": "001"}
],
      "RescaleIntercept": -4096.0,
      "RescaleSlope": 2.0,
      "RescaleType": "US",
      "Rows": 64,
      "SAR": 0.13299071579876,
      "SamplesPerPixel": 1,
      "ScanningSequence": "GR",
      "SequenceName": "*fm2d2r",
      "SequenceVariant": "SP",
      "SeriesDescription": "gre_field_mapping",
      "SeriesNumber": 12,
      "SeriesTime": "105813.987000",
      "SliceThickness": 3.0,
      "SoftwareVersions": "syngo MR E11",
      "SpacingBetweenSlices": 3.0,
      "SpecificCharacterSet": "ISO_IR 100",
      "StudyID": "MMH004",
      "StudyTime": "102956.158000",
      "TransmitCoilName": "Body",
      "VariableFlipAngleFlag": "N",
      "WindowCenterWidthExplanation": "Algo1",
      "dBdt": 0.0},
    "slices": {
      "AcquisitionTime": ["105710.570000", "105710.327500", "105710.582500", "105710.337500", "105710.592500", "105710.350000", "105710.605000", "105710.360000", "105710.615000", "105710.372500", "105710.627500", "105710.382500", "105710.637500", "105710.392500", "105710.647500", "105710.405000", "105710.660000", "105710.415000", "105710.670000", "105710.427500", "105710.682500", "105710.437500", "105710.692500", "105710.450000", "105710.705000", "105710.460000", "105710.715000", "105710.470000", "105710.725000", "105710.482500", "105710.737500", "105710.492500", "105710.747500", "105710.505000", "105710.760000", "105710.515000", "105710.770000", "105710.527500", "105710.782500", "105710.537500", "105710.792500", "105710.547500", "105710.805000", "105710.560000"],
      "ContentTime": ["105814.039000", "105813.989000", "105814.041000", "105813.991000", "105814.042000", "105813.992000", "105814.044000", "105813.994000", "105814.046000", "105814.003000", "105814.047000", "105814.005000", "105814.049000", "105814.006000", "105814.050000", "105814.008000", "105814.052000", "105814.010000", "105814.053000", "105814.012000", "105814.055000", "105814.014000", "105814.057000", "105814.016000", "105814.058000", "105814.022000", "105814.060000", "105814.024000", "105814.062000", "105814.026000", "105814.063000", "105814.027000", "105814.065000", "105814.029000", "105814.066000", "105814.031000", "105814.068000", "105814.033000", "105814.070000", "105814.034000", "105814.071000", "105814.036000", "105814.073000", "105814.038000"],
      "CsaImage.ICE_Dims": [
        "X_2_1_1_1_1_1_23_1_1_1_1_36",
        "X_2_1_1_1_1_1_1_1_1_2_1_36",
        "X_2_1_1_1_1_1_24_1_1_3_1_36",
        "X_2_1_1_1_1_1_2_1_1_4_1_36",
        "X_2_1_1_1_1_1_25_1_1_5_1_36",
        "X_2_1_1_1_1_1_3_1_1_6_1_36",
        "X_2_1_1_1_1_1_26_1_1_7_1_36",
        "X_2_1_1_1_1_1_4_1_1_8_1_36",
        "X_2_1_1_1_1_1_27_1_1_9_1_36",
        "X_2_1_1_1_1_1_5_1_1_10_1_36",
        "X_2_1_1_1_1_1_28_1_1_11_1_36",
        "X_2_1_1_1_1_1_6_1_1_12_1_36",
        "X_2_1_1_1_1_1_29_1_1_13_1_36",
        "X_2_1_1_1_1_1_7_1_1_14_1_36",
        "X_2_1_1_1_1_1_30_1_1_15_1_36",
        "X_2_1_1_1_1_1_8_1_1_16_1_36",
        "X_2_1_1_1_1_1_31_1_1_17_1_36",
        "X_2_1_1_1_1_1_9_1_1_18_1_36",
        "X_2_1_1_1_1_1_32_1_1_19_1_36",
        "X_2_1_1_1_1_1_10_1_1_20_1_36",
        "X_2_1_1_1_1_1_33_1_1_21_1_36",
        "X_2_1_1_1_1_1_11_1_1_22_1_36",
        "X_2_1_1_1_1_1_34_1_1_23_1_36",
        "X_2_1_1_1_1_1_12_1_1_24_1_36",
        "X_2_1_1_1_1_1_35_1_1_25_1_36",
        "X_2_1_1_1_1_1_13_1_1_26_1_36",
        "X_2_1_1_1_1_1_36_1_1_27_1_36",
        "X_2_1_1_1_1_1_14_1_1_28_1_36",
        "X_2_1_1_1_1_1_37_1_1_29_1_36",
        "X_2_1_1_1_1_1_15_1_1_30_1_36",
        "X_2_1_1_1_1_1_38_1_1_31_1_36",
        "X_2_1_1_1_1_1_16_1_1_32_1_36",
        "X_2_1_1_1_1_1_39_1_1_33_1_36",
        "X_2_1_1_1_1_1_17_1_1_34_1_36",
        "X_2_1_1_1_1_1_40_1_1_35_1_36",
        "X_2_1_1_1_1_1_18_1_1_36_1_36",
        "X_2_1_1_1_1_1_41_1_1_37_1_36",
        "X_2_1_1_1_1_1_19_1_1_38_1_36",
        "X_2_1_1_1_1_1_42_1_1_39_1_36",
        "X_2_1_1_1_1_1_20_1_1_40_1_36",
        "X_2_1_1_1_1_1_43_1_1_41_1_36",
        "X_2_1_1_1_1_1_21_1_1_42_1_36",
        "X_2_1_1_1_1_1_44_1_1_43_1_36",
        "X_2_1_1_1_1_1_22_1_1_44_1_36"
],
      "CsaImage.ProtocolSliceNumber": [0, 1, 2, 3, 4, 5, 6, 7, 8, 9, 10, 11, 12, 13, 14, 15, 16, 17, 18, 19, 20, 21, 22, 23, 24, 25, 26, 27, 28, 29, 30, 31, 32, 33, 34, 35, 36, 37, 38, 39, 40, 41, 42, 43],
      "CsaImage.RFSWDDataType": [
        "predicted",
        "predicted",
        "predicted",
        "predicted",
        "predicted",
        "predicted",
        "predicted",
        "predicted",
        "predicted",
        "predicted",
        "predicted",
        "predicted",
        "predicted",
        "predicted",
        "predicted",
        "predicted",
        "predicted",
        "predicted",
        "predicted",
        "predicted",
        "predicted",
        "predicted",
        "predicted",
        "predicted",
        "predicted",
        "predicted",
        "predicted",
        "predicted",
        "predicted",
        "predicted",
        "predicted",
        "predicted",
        "predicted",
        "predicted",
        "predicted",
        "predicted",
        "predicted",
        "predicted",
        "predicted",
        "predicted",
        "predicted",
        "predicted",
        "measured",
        "predicted"
],
      "CsaImage.SliceMeasurementDuration": [61490.0, 61487.5, 61487.5, 61487.5, 61487.5, 61487.5, 61487.5, 61487.5, 61487.5, 61487.5, 61487.5, 61487.5, 61487.5, 61490.0, 61490.0, 61487.5, 61487.5, 61487.5, 61487.5, 61487.5, 61487.5, 61487.5, 61487.5, 61487.5, 61487.5, 61487.5, 61487.5, 61490.0, 61490.0, 61487.5, 61487.5, 61490.0, 61490.0, 61487.5, 61487.5, 61487.5, 61487.5, 61487.5, 61487.5, 61487.5, 61487.5, 61490.0, 61487.5, 61487.5],
      "CsaImage.SlicePosition_PCS": [
        [-96.88308561, -113.58824158, -22.19085121],
        [-96.88308561, -113.58824158, -19.19085121],
        [-96.88308561, -113.58824158, -16.19085121],
        [-96.88308561, -113.58824158, -13.19085217],
        [-96.88308561, -113.58824158, -10.19085217],
        [-96.88308561, -113.58824158, -7.19085169],
        [-96.88308561, -113.58824158, -4.19085169],
        [-96.88308561, -113.58824158, -1.19085181],
        [-96.88308561, -113.58824158, 1.80914819],
        [-96.88308561, -113.58824158, 4.80914831],
        [-96.88308561, -113.58824158, 7.80914831],
        [-96.88308561, -113.58824158, 10.80914783],
        [-96.88308561, -113.58824158, 13.80914783],
        [-96.88308561, -113.58824158, 16.80914879],
        [-96.88308561, -113.58824158, 19.80914879],
        [-96.88308561, -113.58824158, 22.80914879],
        [-96.88308561, -113.58824158, 25.80914879],
        [-96.88308561, -113.58824158, 28.80914879],
        [-96.88308561, -113.58824158, 31.80914879],
        [-96.88308561, -113.58824158, 34.80914688],
        [-96.88308561, -113.58824158, 37.80914688],
        [-96.88308561, -113.58824158, 40.80914688],
        [-96.88308561, -113.58824158, 43.80914688],
        [-96.88308561, -113.58824158, 46.80914688],
        [-96.88308561, -113.58824158, 49.80914688],
        [-96.88308561, -113.58824158, 52.80914688],
        [-96.88308561, -113.58824158, 55.80914688],
        [-96.88308561, -113.58824158, 58.80914688],
        [-96.88308561, -113.58824158, 61.80914688],
        [-96.88308561, -113.58824158, 64.8091507],
        [-96.88308561, -113.58824158, 67.8091507],
        [-96.88308561, -113.58824158, 70.8091507],
        [-96.88308561, -113.58824158, 73.8091507],
        [-96.88308561, -113.58824158, 76.8091507],
        [-96.88308561, -113.58824158, 79.8091507],
        [-96.88308561, -113.58824158, 82.8091507],
        [-96.88308561, -113.58824158, 85.8091507],
        [-96.88308561, -113.58824158, 88.8091507],
        [-96.88308561, -113.58824158, 91.8091507],
        [-96.88308561, -113.58824158, 94.8091507],
        [-96.88308561, -113.58824158, 97.8091507],
        [-96.88308561, -113.58824158, 100.8091507],
        [-96.88308561, -113.58824158, 103.8091507],
        [-96.88308561, -113.58824158, 106.8091507]
],
      "CsaImage.TimeAfterStart": [0.735, 0.4925, 0.7475, 0.5025, 0.7575, 0.5125, 0.7675, 0.525, 0.78, 0.535, 0.79, 0.5475, 0.8025, 0.5575, 0.8125, 0.57, 0.825, 0.58, 0.835, 0.59, 0.8475, 0.6025, 0.8575, 0.6125, 0.8675, 0.625, 0.88, 0.635, 0.89, 0.6475, 0.9025, 0.6575, 0.9125, 0.67, 0.925, 0.68, 0.935, 0.69, 0.945, 0.7025, 0.9575, 0.7125, 0.9675, 0.725],
      "ImagePositionPatient": [
        [-96.883085608482, -113.58824157715, -22.190851211548],
        [-96.883085608482, -113.58824157715, -19.190851211548],
        [-96.883085608482, -113.58824157715, -16.190851211548],
        [-96.883085608482, -113.58824157715, -13.190852165222],
        [-96.883085608482, -113.58824157715, -10.190852165222],
        [-96.883085608482, -113.58824157715, -7.190851688385],
        [-96.883085608482, -113.58824157715, -4.190851688385],
        [-96.883085608482, -113.58824157715, -1.1908518075943],
        [-96.883085608482, -113.58824157715, 1.8091481924057],
        [-96.883085608482, -113.58824157715, 4.809148311615],
        [-96.883085608482, -113.58824157715, 7.809148311615],
        [-96.883085608482, -113.58824157715, 10.809147834778],
        [-96.883085608482, -113.58824157715, 13.809147834778],
        [-96.883085608482, -113.58824157715, 16.809148788452],
        [-96.883085608482, -113.58824157715, 19.809148788452],
        [-96.883085608482, -113.58824157715, 22.809148788452],
        [-96.883085608482, -113.58824157715, 25.809148788452],
        [-96.883085608482, -113.58824157715, 28.809148788452],
        [-96.883085608482, -113.58824157715, 31.809148788452],
        [-96.883085608482, -113.58824157715, 34.809146881104],
        [-96.883085608482, -113.58824157715, 37.809146881104],
        [-96.883085608482, -113.58824157715, 40.809146881104],
        [-96.883085608482, -113.58824157715, 43.809146881104],
        [-96.883085608482, -113.58824157715, 46.809146881104],
        [-96.883085608482, -113.58824157715, 49.809146881104],
        [-96.883085608482, -113.58824157715, 52.809146881104],
        [-96.883085608482, -113.58824157715, 55.809146881104],
        [-96.883085608482, -113.58824157715, 58.809146881104],
        [-96.883085608482, -113.58824157715, 61.809146881104],
        [-96.883085608482, -113.58824157715, 64.809150695801],
        [-96.883085608482, -113.58824157715, 67.809150695801],
        [-96.883085608482, -113.58824157715, 70.809150695801],
        [-96.883085608482, -113.58824157715, 73.809150695801],
        [-96.883085608482, -113.58824157715, 76.809150695801],
        [-96.883085608482, -113.58824157715, 79.809150695801],
        [-96.883085608482, -113.58824157715, 82.809150695801],
        [-96.883085608482, -113.58824157715, 85.809150695801],
        [-96.883085608482, -113.58824157715, 88.809150695801],
        [-96.883085608482, -113.58824157715, 91.809150695801],
        [-96.883085608482, -113.58824157715, 94.809150695801],
        [-96.883085608482, -113.58824157715, 97.809150695801],
        [-96.883085608482, -113.58824157715, 100.8091506958],
        [-96.883085608482, -113.58824157715, 103.8091506958],
        [-96.883085608482, -113.58824157715, 106.8091506958]
],
      "InstanceCreationTime": ["105814.039000", "105813.989000", "105814.041000", "105813.991000", "105814.042000", "105813.992000", "105814.044000", "105813.994000", "105814.046000", "105814.003000", "105814.047000", "105814.005000", "105814.049000", "105814.006000", "105814.050000", "105814.008000", "105814.052000", "105814.010000", "105814.053000", "105814.012000", "105814.055000", "105814.014000", "105814.057000", "105814.016000", "105814.058000", "105814.022000", "105814.060000", "105814.024000", "105814.062000", "105814.026000", "105814.063000", "105814.027000", "105814.065000", "105814.029000", "105814.066000", "105814.031000", "105814.068000", "105814.033000", "105814.070000", "105814.034000", "105814.071000", "105814.036000", "105814.073000", "105814.038000"],
      "InstanceNumber": [1, 2, 3, 4, 5, 6, 7, 8, 9, 10, 11, 12, 13, 14, 15, 16, 17, 18, 19, 20, 21, 22, 23, 24, 25, 26, 27, 28, 29, 30, 31, 32, 33, 34, 35, 36, 37, 38, 39, 40, 41, 42, 43, 44],
      "LargestImagePixelValue": [4093, 4094, 4091, 4091, 4091, 4091, 4089, 4092, 4093, 4049, 4091, 4050, 4079, 4017, 4063, 3938, 4074, 4072, 4085, 4063, 4031, 4079, 4076, 4056, 4019, 4081, 4088, 4086, 4094, 4089, 4095, 4085, 4083, 4094, 4094, 4092, 4092, 4094, 4093, 4092, 4095, 4094, 4095, 4095],
      "SliceLocation": [-22.190851211548, -19.190851211548, -16.190851211548, -13.190852165222, -10.190852165222, -7.190851688385, -4.190851688385, -1.1908518075943, 1.8091481924057, 4.809148311615, 7.809148311615, 10.809147834778, 13.809147834778, 16.809148788452, 19.809148788452, 22.809148788452, 25.809148788452, 28.809148788452, 31.809148788452, 34.809146881104, 37.809146881104, 40.809146881104, 43.809146881104, 46.809146881104, 49.809146881104, 52.809146881104, 55.809146881104, 58.809146881104, 61.809146881104, 64.809150695801, 67.809150695801, 70.809150695801, 73.809150695801, 76.809150695801, 79.809150695801, 82.809150695801, 85.809150695801, 88.809150695801, 91.809150695801, 94.809150695801, 97.809150695801, 100.8091506958, 103.8091506958, 106.8091506958],
      "SmallestImagePixelValue": [0, 0, 5, 2, 2, 4, 0, 14, 37, 57, 47, 57, 3, 4, 7, 8, 43, 23, 68, 13, 3, 31, 3, 20, 27, 36, 2, 7, 10, 14, 21, 3, 12, 10, 0, 3, 0, 1, 2, 0, 6, 1, 0, 0],
      "WindowCenter": [-120.0, -258.0, -280.0, -154.0, -142.0, -240.0, -210.0, -134.0, -98.0, -84.0, -200.0, -202.0, -206.0, -192.0, -94.0, -200.0, -194.0, -76.0, -184.0, -204.0, -174.0, -196.0, -160.0, -170.0, -166.0, -170.0, -176.0, -160.0, -160.0, -108.0, -134.0, -148.0, -166.0, -174.0, -212.0, -266.0, -344.0, -400.0, -410.0, -460.0, -272.0, -280.0, -304.0, -318.0],
      "WindowWidth": [6182.0, 6044.0, 5762.0, 5842.0, 5746.0, 5712.0, 5344.0, 5322.0, 5336.0, 5330.0, 4510.0, 4524.0, 4520.0, 4520.0, 4884.0, 4526.0, 4514.0, 5018.0, 4506.0, 4532.0, 4498.0, 4530.0, 4498.0, 4512.0, 4504.0, 4518.0, 4518.0, 4516.0, 4520.0, 4486.0, 4506.0, 4522.0, 4512.0, 4566.0, 4590.0, 4644.0, 4668.0, 4734.0, 4824.0, 4948.0, 5618.0, 6230.0, 6536.0, 6562.0]
    }
  }
}