{
  "AcquisitionMatrixPE": 64,
  "AcquisitionNumber": 1,
  "AcquisitionTime": "10:49:33.477500",
  "BandwidthPerPixelPhaseEncode": 60.096,
  "BaseResolution": 64,
  "BodyPartExamined": "BRAIN",
  "CoilString": "HEA;HEP",
  "ConsistencyInfo": "N4_VE11P_LATEST_20161021",
  "ConversionSoftware": "dcm2niix",
  "ConversionSoftwareVersion": "v1.0.20190410  GCC6.3.0",
  "DerivedVendorReportedEchoSpacing": 0.000520001,
  "DeviceSerialNumber": "51066",
  "DwellTime": 3.4e-06,
  "EchoTime": 0.03,
  "EchoTrainLength": 31,
  "EffectiveEchoSpacing": 0.000260001,
  "FlipAngle": 90,
  "ImageOrientationPatientDICOM": [1, 0, 0, 0, 1, 0],
  "ImageType": [
    "ORIGINAL",
    "PRIMARY",
    "M",
    "ND",
    "NORM",
    "MOSAIC"
],
  "ImagingFrequency": 123.239,
  "InPlanePhaseEncodingDirectionDICOM": "COL",
  "InstitutionAddress": "Blackburn_Road_770_Clayton_Victoria_AU_3168",
  "InstitutionName": "MONASH_BIOMEDICAL_IMAGING",
  "InstitutionalDepartmentName": "Department",
  "MRAcquisitionType": "2D",
  "MagneticFieldStrength": 3,
  "Manufacturer": "Siemens",
  "ManufacturersModelName": "Biograph_mMR",
  "Modality": "MR",
  "ParallelReductionFactorInPlane": 2,
  "PartialFourier": 1,
  "PatientPosition": "HFS",
  "PercentPhaseFOV": 100,
  "PhaseEncodingDirection": "j-",
  "PhaseEncodingSteps": 63,
  "PhaseResolution": 1,
  "PixelBandwidth": 2300,
  "ProcedureStepDescription": "MR-PET_Scan",
  "ProtocolName": "Head_A-P_Full_checker_ep2D_task_bold_32-32",
  "PulseSequenceDetails": "%SiemensSeq%_ep2d_bold",
  "ReceiveCoilActiveElements": "H1U;H2L",
  "ReceiveCoilName": "HeadNeck_MRPET",
  "ReconMatrixPE": 64,
  "RefLinesPE": 24,
  "RepetitionTime": 4,
  "SAR": 0.0707616,
  "ScanOptions": "FS",
  "ScanningSequence": "EP",
  "SequenceName": "_epfid2d1_64",
  "SequenceVariant": "SK",
  "SeriesDescription": "Head_A-P_Full_checker_ep2D_task_bold_32-32",
  "SeriesNumber": 19,
  "ShimSetting": [-8324, -956, -3882, 522, -202, -156, -373, -280],
  "SliceThickness": 3,
  "SliceTiming": [1.99, 0, 2.08, 0.09, 2.17, 0.1825, 2.2625, 0.2725, 2.3525, 0.3625, 2.4425, 0.4525, 2.5325, 0.5425, 2.6225, 0.6325, 2.715, 0.725, 2.805, 0.815, 2.895, 0.905, 2.985, 0.995, 3.075, 1.085, 3.165, 1.175, 3.2575, 1.2675, 3.3475, 1.3575, 3.4375, 1.4475, 3.5275, 1.5375, 3.6175, 1.6275, 3.71, 1.72, 3.8, 1.81, 3.89, 1.9],
  "SoftwareVersions": "syngo_MR_E11",
  "SpacingBetweenSlices": 3,
  "StationName": "MRC51066",
  "TaskName": "checkerboard",
  "TotalReadoutTime": 0.01638,
  "TxRefAmp": 285.403,
  "dcmmeta_affine": [
    [-2.96875, 0.0, 0.0, 95.43962860107422],
    [0.0, 2.96875, 0.0, -78.38911437988281],
    [0.0, 0.0, 3.0, -45.9134635925293],
    [0.0, 0.0, 0.0, 1.0]
],
  "dcmmeta_reorient_transform": [
    [0.0, -1.0, 0.0, 63.0],
    [1.0, 0.0, 0.0, 0.0],
    [0.0, 0.0, 1.0, 0.0],
    [0.0, 0.0, 0.0, 1.0]
],
  "dcmmeta_shape": [64, 64, 44, 1360],
  "dcmmeta_slice_dim": 2,
  "dcmmeta_version": 0.6,
  "global": {
    "const": {
      "AcquisitionMatrix": [64, 0, 0, 64],
      "Allergies": "None",
      "AngioFlag": "N",
      "BitsAllocated": 16,
      "BitsStored": 12,
      "BodyPartExamined": "BRAIN",
      "Columns": 448,
      "EchoNumbers": 1,
      "EchoTime": 30.0,
      "EchoTrainLength": 31,
      "FlipAngle": 90.0,
      "HighBit": 11,
      "ImageOrientationPatient": [1.0, 0.0, 0.0, 0.0, 1.0, 0.0],
      "ImagePositionPatient": [-665.43963107467, -678.64213180542, -45.913463592529],
      "ImageType": [
        "ORIGINAL",
        "PRIMARY",
        "M",
        "ND",
        "NORM",
        "MOSAIC"
],
      "ImagedNucleus": "1H",
      "ImagingFrequency": 123.239307,
      "InPlanePhaseEncodingDirection": "COL",
      "MRAcquisitionType": "2D",
      "MagneticFieldStrength": 3.0,
      "Manufacturer": "SIEMENS",
      "ManufacturerModelName": "Biograph_mMR",
      "MedicalAlerts": "None",
      "Modality": "MR",
      "NumberOfAverages": 1.0,
      "NumberOfPhaseEncodingSteps": 63,
      "PercentPhaseFieldOfView": 100.0,
      "PercentSampling": 100.0,
      "PerformedProcedureStepStartTime": "101846.233000",
      "PhotometricInterpretation": "MONOCHROME2",
      "PixelBandwidth": 2300.0,
      "PixelRepresentation": 0,
      "PixelSpacing": [2.96875, 2.96875],
      "PregnancyStatus": 4,
      "ProtocolName": "Head_A-P Full checker_ep2D_task_bold_32-32",
      "RepetitionTime": 4000.0,
      "RequestAttributesSequence": [
        {
          "RequestedProcedureID": "MMH004",
          "ScheduledProcedureStepDescription": "MR-PET Scan",
          "ScheduledProcedureStepID": "001"}
],
      "Rows": 448,
      "SAR": 0.07076157326886,
      "SamplesPerPixel": 1,
      "ScanOptions": "FS",
      "ScanningSequence": "EP",
      "SequenceName": "*epfid2d1_64",
      "SequenceVariant": "SK",
      "SeriesDescription": "Head_A-P Full checker_ep2D_task_bold_32-32",
      "SeriesNumber": 19,
      "SeriesTime": "105112.878000",
      "SliceLocation": -45.913463592529,
      "SliceThickness": 3.0,
      "SmallestImagePixelValue": 0,
      "SoftwareVersions": "syngo MR E11",
      "SpacingBetweenSlices": 2.9999999112861,
      "SpecificCharacterSet": "ISO_IR 100",
      "StudyID": "MMH004",
      "StudyTime": "101846.099000",
      "TransmitCoilName": "Body",
      "VariableFlipAngleFlag": "N",
      "WindowCenterWidthExplanation": "Algo1",
      "dBdt": 0.0},
    "slices": {}
  },
  "time": {
    "samples": {
      "AcquisitionNumber": [1, 2, 3, 4, 5, 6, 7, 8, 9, 10, 11, 12, 13, 14, 15, 16, 17, 18, 19, 20, 21, 22, 23, 24, 25, 26, 27, 28, 29, 30, 31, 32, 33, 34, 35, 36, 37, 38, 39, 40, 41, 42, 43, 44, 45, 46, 47, 48, 49, 50, 51, 52, 53, 54, 55, 56, 57, 58, 59, 60, 61, 62, 63, 64, 65, 66, 67, 68, 69, 70, 71, 72, 73, 74, 75, 76, 77, 78, 79, 80, 81, 82, 83, 84, 85, 86, 87, 88, 89, 90, 91, 92, 93, 94, 95, 96, 97, 98, 99, 100, 101, 102, 103, 104, 105, 106, 107, 108, 109, 110, 111, 112, 113, 114, 115, 116, 117, 118, 119, 120, 121, 122, 123, 124, 125, 126, 127, 128, 129, 130, 131, 132, 133, 134, 135, 136, 137, 138, 139, 140, 141, 142, 143, 144, 145, 146, 147, 148, 149, 150, 151, 152, 153, 154, 155, 156, 157, 158, 159, 160, 161, 162, 163, 164, 165, 166, 167, 168, 169, 170, 171, 172, 173, 174, 175, 176, 177, 178, 179, 180, 181, 182, 183, 184, 185, 186, 187, 188, 189, 190, 191, 192, 193, 194, 195, 196, 197, 198, 199, 200, 201, 202, 203, 204, 205, 206, 207, 208, 209, 210, 211, 212, 213, 214, 215, 216, 217, 218, 219, 220, 221, 222, 223, 224, 225, 226, 227, 228, 229, 230, 231, 232, 233, 234, 235, 236, 237, 238, 239, 240, 241, 242, 243, 244, 245, 246, 247, 248, 249, 250, 251, 252, 253, 254, 255, 256, 257, 258, 259, 260, 261, 262, 263, 264, 265, 266, 267, 268, 269, 270, 271, 272, 273, 274, 275, 276, 277, 278, 279, 280, 281, 282, 283, 284, 285, 286, 287, 288, 289, 290, 291, 292, 293, 294, 295, 296, 297, 298, 299, 300, 301, 302, 303, 304, 305, 306, 307, 308, 309, 310, 311, 312, 313, 314, 315, 316, 317, 318, 319, 320, 321, 322, 323, 324, 325, 326, 327, 328, 329, 330, 331, 332, 333, 334, 335, 336, 337, 338, 339, 340, 341, 342, 343, 344, 345, 346, 347, 348, 349, 350, 351, 352, 353, 354, 355, 356, 357, 358, 359, 360, 361, 362, 363, 364, 365, 366, 367, 368, 369, 370, 371, 372, 373, 374, 375, 376, 377, 378, 379, 380, 381, 382, 383, 384, 385, 386, 387, 388, 389, 390, 391, 392, 393, 394, 395, 396, 397, 398, 399, 400, 401, 402, 403, 404, 405, 406, 407, 408, 409, 410, 411, 412, 413, 414, 415, 416, 417, 418, 419, 420, 421, 422, 423, 424, 425, 426, 427, 428, 429, 430, 431, 432, 433, 434, 435, 436, 437, 438, 439, 440, 441, 442, 443, 444, 445, 446, 447, 448, 449, 450, 451, 452, 453, 454, 455, 456, 457, 458, 459, 460, 461, 462, 463, 464, 465, 466, 467, 468, 469, 470, 471, 472, 473, 474, 475, 476, 477, 478, 479, 480, 481, 482, 483, 484, 485, 486, 487, 488, 489, 490, 491, 492, 493, 494, 495, 496, 497, 498, 499, 500, 501, 502, 503, 504, 505, 506, 507, 508, 509, 510, 511, 512, 513, 514, 515, 516, 517, 518, 519, 520, 521, 522, 523, 524, 525, 526, 527, 528, 529, 530, 531, 532, 533, 534, 535, 536, 537, 538, 539, 540, 541, 542, 543, 544, 545, 546, 547, 548, 549, 550, 551, 552, 553, 554, 555, 556, 557, 558, 559, 560, 561, 562, 563, 564, 565, 566, 567, 568, 569, 570, 571, 572, 573, 574, 575, 576, 577, 578, 579, 580, 581, 582, 583, 584, 585, 586, 587, 588, 589, 590, 591, 592, 593, 594, 595, 596, 597, 598, 599, 600, 601, 602, 603, 604, 605, 606, 607, 608, 609, 610, 611, 612, 613, 614, 615, 616, 617, 618, 619, 620, 621, 622, 623, 624, 625, 626, 627, 628, 629, 630, 631, 632, 633, 634, 635, 636, 637, 638, 639, 640, 641, 642, 643, 644, 645, 646, 647, 648, 649, 650, 651, 652, 653, 654, 655, 656, 657, 658, 659, 660, 661, 662, 663, 664, 665, 666, 667, 668, 669, 670, 671, 672, 673, 674, 675, 676, 677, 678, 679, 680, 681, 682, 683, 684, 685, 686, 687, 688, 689, 690, 691, 692, 693, 694, 695, 696, 697, 698, 699, 700, 701, 702, 703, 704, 705, 706, 707, 708, 709, 710, 711, 712, 713, 714, 715, 716, 717, 718, 719, 720, 721, 722, 723, 724, 725, 726, 727, 728, 729, 730, 731, 732, 733, 734, 735, 736, 737, 738, 739, 740, 741, 742, 743, 744, 745, 746, 747, 748, 749, 750, 751, 752, 753, 754, 755, 756, 757, 758, 759, 760, 761, 762, 763, 764, 765, 766, 767, 768, 769, 770, 771, 772, 773, 774, 775, 776, 777, 778, 779, 780, 781, 782, 783, 784, 785, 786, 787, 788, 789, 790, 791, 792, 793, 794, 795, 796, 797, 798, 799, 800, 801, 802, 803, 804, 805, 806, 807, 808, 809, 810, 811, 812, 813, 814, 815, 816, 817, 818, 819, 820, 821, 822, 823, 824, 825, 826, 827, 828, 829, 830, 831, 832, 833, 834, 835, 836, 837, 838, 839, 840, 841, 842, 843, 844, 845, 846, 847, 848, 849, 850, 851, 852, 853, 854, 855, 856, 857, 858, 859, 860, 861, 862, 863, 864, 865, 866, 867, 868, 869, 870, 871, 872, 873, 874, 875, 876, 877, 878, 879, 880, 881, 882, 883, 884, 885, 886, 887, 888, 889, 890, 891, 892, 893, 894, 895, 896, 897, 898, 899, 900, 901, 902, 903, 904, 905, 906, 907, 908, 909, 910, 911, 912, 913, 914, 915, 916, 917, 918, 919, 920, 921, 922, 923, 924, 925, 926, 927, 928, 929, 930, 931, 932, 933, 934, 935, 936, 937, 938, 939, 940, 941, 942, 943, 944, 945, 946, 947, 948, 949, 950, 951, 952, 953, 954, 955, 956, 957, 958, 959, 960, 961, 962, 963, 964, 965, 966, 967, 968, 969, 970, 971, 972, 973, 974, 975, 976, 977, 978, 979, 980, 981, 982, 983, 984, 985, 986, 987, 988, 989, 990, 991, 992, 993, 994, 995, 996, 997, 998, 999, 1000, 1001, 1002, 1003, 1004, 1005, 1006, 1007, 1008, 1009, 1010, 1011, 1012, 1013, 1014, 1015, 1016, 1017, 1018, 1019, 1020, 1021, 1022, 1023, 1024, 1025, 1026, 1027, 1028, 1029, 1030, 1031, 1032, 1033, 1034, 1035, 1036, 1037, 1038, 1039, 1040, 1041, 1042, 1043, 1044, 1045, 1046, 1047, 1048, 1049, 1050, 1051, 1052, 1053, 1054, 1055, 1056, 1057, 1058, 1059, 1060, 1061, 1062, 1063, 1064, 1065, 1066, 1067, 1068, 1069, 1070, 1071, 1072, 1073, 1074, 1075, 1076, 1077, 1078, 1079, 1080, 1081, 1082, 1083, 1084, 1085, 1086, 1087, 1088, 1089, 1090, 1091, 1092, 1093, 1094, 1095, 1096, 1097, 1098, 1099, 1100, 1101, 1102, 1103, 1104, 1105, 1106, 1107, 1108, 1109, 1110, 1111, 1112, 1113, 1114, 1115, 1116, 1117, 1118, 1119, 1120, 1121, 1122, 1123, 1124, 1125, 1126, 1127, 1128, 1129, 1130, 1131, 1132, 1133, 1134, 1135, 1136, 1137, 1138, 1139, 1140, 1141, 1142, 1143, 1144, 1145, 1146, 1147, 1148, 1149, 1150, 1151, 1152, 1153, 1154, 1155, 1156, 1157, 1158, 1159, 1160, 1161, 1162, 1163, 1164, 1165, 1166, 1167, 1168, 1169, 1170, 1171, 1172, 1173, 1174, 1175, 1176, 1177, 1178, 1179, 1180, 1181, 1182, 1183, 1184, 1185, 1186, 1187, 1188, 1189, 1190, 1191, 1192, 1193, 1194, 1195, 1196, 1197, 1198, 1199, 1200, 1201, 1202, 1203, 1204, 1205, 1206, 1207, 1208, 1209, 1210, 1211, 1212, 1213, 1214, 1215, 1216, 1217, 1218, 1219, 1220, 1221, 1222, 1223, 1224, 1225, 1226, 1227, 1228, 1229, 1230, 1231, 1232, 1233, 1234, 1235, 1236, 1237, 1238, 1239, 1240, 1241, 1242, 1243, 1244, 1245, 1246, 1247, 1248, 1249, 1250, 1251, 1252, 1253, 1254, 1255, 1256, 1257, 1258, 1259, 1260, 1261, 1262, 1263, 1264, 1265, 1266, 1267, 1268, 1269, 1270, 1271, 1272, 1273, 1274, 1275, 1276, 1277, 1278, 1279, 1280, 1281, 1282, 1283, 1284, 1285, 1286, 1287, 1288, 1289, 1290, 1291, 1292, 1293, 1294, 1295, 1296, 1297, 1298, 1299, 1300, 1301, 1302, 1303, 1304, 1305, 1306, 1307, 1308, 1309, 1310, 1311, 1312, 1313, 1314, 1315, 1316, 1317, 1318, 1319, 1320, 1321, 1322, 1323, 1324, 1325, 1326, 1327, 1328, 1329, 1330, 1331, 1332, 1333, 1334, 1335, 1336, 1337, 1338, 1339, 1340, 1341, 1342, 1343, 1344, 1345, 1346, 1347, 1348, 1349, 1350, 1351, 1352, 1353, 1354, 1355, 1356, 1357, 1358, 1359, 1360],
      "AcquisitionTime": ["104933.477500", "104937.477500", "104941.477500", "104945.477500", "104949.477500", "104953.477500", "104957.477500", "105001.477500", "105005.477500", "105009.477500", "105013.477500", "105017.477500", "105021.477500", "105025.477500", "105029.477500", "105033.477500", "105037.477500", "105041.477500", "105045.477500", "105049.477500", "105053.477500", "105057.477500", "105101.477500", "105105.477500", "105109.477500", "105113.477500", "105117.477500", "105121.477500", "105125.477500", "105129.477500", "105133.477500", "105137.477500", "105141.477500", "105145.477500", "105149.477500", "105153.477500", "105157.477500", "105201.477500", "105205.477500", "105209.477500", "105213.477500", "105217.477500", "105221.477500", "105225.477500", "105229.477500", "105233.477500", "105237.477500", "105241.477500", "105245.477500", "105249.477500", "105253.477500", "105257.477500", "105301.477500", "105305.477500", "105309.477500", "105313.477500", "105317.477500", "105321.477500", "105325.477500", "105329.477500", "105333.477500", "105337.477500", "105341.477500", "105345.477500", "105349.477500", "105353.477500", "105357.477500", "105401.477500", "105405.477500", "105409.477500", "105413.477500", "105417.477500", "105421.477500", "105425.477500", "105429.477500", "105433.477500", "105437.477500", "105441.477500", "105445.477500", "105449.477500", "105453.477500", "105457.477500", "105501.477500", "105505.477500", "105509.477500", "105513.477500", "105517.477500", "105521.477500", "105525.477500", "105529.477500", "105533.477500", "105537.477500", "105541.477500", "105545.477500", "105549.477500", "105553.477500", "105557.477500", "105601.477500", "105605.477500", "105609.477500", "105613.477500", "105617.477500", "105621.477500", "105625.477500", "105629.477500", "105633.477500", "105637.477500", "105641.477500", "105645.477500", "105649.477500", "105653.477500", "105657.477500", "105701.477500", "105705.477500", "105709.477500", "105713.477500", "105717.477500", "105721.477500", "105725.477500", "105729.477500", "105733.477500", "105737.477500", "105741.477500", "105745.477500", "105749.477500", "105753.477500", "105757.477500", "105801.477500", "105805.477500", "105809.477500", "105813.477500", "105817.477500", "105821.477500", "105825.477500", "105829.477500", "105833.477500", "105837.477500", "105841.477500", "105845.477500", "105849.477500", "105853.477500", "105857.477500", "105901.477500", "105905.477500", "105909.477500", "105913.477500", "105917.477500", "105921.477500", "105925.477500", "105929.477500", "105933.477500", "105937.477500", "105941.477500", "105945.477500", "105949.477500", "105953.477500", "105957.477500", "110001.477500", "110005.477500", "110009.477500", "110013.477500", "110017.477500", "110021.477500", "110025.477500", "110029.477500", "110033.477500", "110037.477500", "110041.477500", "110045.477500", "110049.477500", "110053.477500", "110057.477500", "110101.477500", "110105.477500", "110109.477500", "110113.477500", "110117.477500", "110121.477500", "110125.477500", "110129.477500", "110133.477500", "110137.477500", "110141.477500", "110145.477500", "110149.477500", "110153.477500", "110157.477500", "110201.477500", "110205.477500", "110209.477500", "110213.477500", "110217.477500", "110221.477500", "110225.477500", "110229.477500", "110233.477500", "110237.477500", "110241.477500", "110245.477500", "110249.477500", "110253.477500", "110257.477500", "110301.477500", "110305.477500", "110309.477500", "110313.477500", "110317.477500", "110321.477500", "110325.477500", "110329.477500", "110333.477500", "110337.477500", "110341.477500", "110345.477500", "110349.477500", "110353.477500", "110357.477500", "110401.477500", "110405.477500", "110409.477500", "110413.477500", "110417.477500", "110421.477500", "110425.477500", "110429.477500", "110433.477500", "110437.477500", "110441.477500", "110445.477500", "110449.477500", "110453.477500", "110457.477500", "110501.477500", "110505.477500", "110509.477500", "110513.477500", "110517.477500", "110521.477500", "110525.477500", "110529.477500", "110533.477500", "110537.477500", "110541.477500", "110545.477500", "110549.477500", "110553.477500", "110557.477500", "110601.477500", "110605.477500", "110609.477500", "110613.477500", "110617.477500", "110621.477500", "110625.477500", "110629.477500", "110633.477500", "110637.477500", "110641.477500", "110645.477500", "110649.477500", "110653.477500", "110657.477500", "110701.477500", "110705.477500", "110709.477500", "110713.477500", "110717.477500", "110721.477500", "110725.477500", "110729.477500", "110733.477500", "110737.477500", "110741.477500", "110745.477500", "110749.477500", "110753.477500", "110757.477500", "110801.477500", "110805.477500", "110809.477500", "110813.477500", "110817.477500", "110821.477500", "110825.477500", "110829.477500", "110833.477500", "110837.477500", "110841.477500", "110845.477500", "110849.477500", "110853.477500", "110857.477500", "110901.477500", "110905.477500", "110909.477500", "110913.477500", "110917.477500", "110921.477500", "110925.477500", "110929.477500", "110933.477500", "110937.477500", "110941.477500", "110945.477500", "110949.477500", "110953.477500", "110957.477500", "111001.477500", "111005.477500", "111009.477500", "111013.477500", "111017.477500", "111021.477500", "111025.477500", "111029.477500", "111033.477500", "111037.477500", "111041.477500", "111045.477500", "111049.477500", "111053.477500", "111057.477500", "111101.477500", "111105.477500", "111109.477500", "111113.477500", "111117.477500", "111121.477500", "111125.477500", "111129.477500", "111133.477500", "111137.477500", "111141.477500", "111145.477500", "111149.477500", "111153.477500", "111157.477500", "111201.477500", "111205.477500", "111209.477500", "111213.477500", "111217.477500", "111221.477500", "111225.477500", "111229.477500", "111233.477500", "111237.477500", "111241.477500", "111245.477500", "111249.477500", "111253.477500", "111257.477500", "111301.477500", "111305.477500", "111309.477500", "111313.477500", "111317.477500", "111321.477500", "111325.477500", "111329.477500", "111333.477500", "111337.477500", "111341.477500", "111345.477500", "111349.477500", "111353.477500", "111357.477500", "111401.477500", "111405.477500", "111409.477500", "111413.477500", "111417.477500", "111421.477500", "111425.477500", "111429.477500", "111433.477500", "111437.477500", "111441.477500", "111445.477500", "111449.477500", "111453.477500", "111457.477500", "111501.477500", "111505.477500", "111509.477500", "111513.477500", "111517.477500", "111521.477500", "111525.477500", "111529.477500", "111533.477500", "111537.477500", "111541.477500", "111545.477500", "111549.477500", "111553.477500", "111557.477500", "111601.477500", "111605.477500", "111609.477500", "111613.477500", "111617.477500", "111621.477500", "111625.477500", "111629.477500", "111633.477500", "111637.477500", "111641.477500", "111645.477500", "111649.477500", "111653.477500", "111657.477500", "111701.477500", "111705.477500", "111709.477500", "111713.477500", "111717.477500", "111721.477500", "111725.477500", "111729.477500", "111733.477500", "111737.477500", "111741.477500", "111745.477500", "111749.477500", "111753.477500", "111757.477500", "111801.477500", "111805.477500", "111809.477500", "111813.477500", "111817.477500", "111821.477500", "111825.477500", "111829.477500", "111833.477500", "111837.477500", "111841.477500", "111845.477500", "111849.477500", "111853.477500", "111857.477500", "111901.477500", "111905.477500", "111909.477500", "111913.477500", "111917.477500", "111921.477500", "111925.477500", "111929.477500", "111933.477500", "111937.477500", "111941.477500", "111945.477500", "111949.477500", "111953.477500", "111957.477500", "112001.477500", "112005.477500", "112009.477500", "112013.477500", "112017.477500", "112021.477500", "112025.477500", "112029.477500", "112033.477500", "112037.477500", "112041.477500", "112045.477500", "112049.477500", "112053.477500", "112057.477500", "112101.477500", "112105.477500", "112109.477500", "112113.477500", "112117.477500", "112121.477500", "112125.477500", "112129.477500", "112133.477500", "112137.477500", "112141.477500", "112145.477500", "112149.477500", "112153.477500", "112157.477500", "112201.477500", "112205.477500", "112209.477500", "112213.477500", "112217.477500", "112221.477500", "112225.477500", "112229.477500", "112233.477500", "112237.477500", "112241.477500", "112245.477500", "112249.477500", "112253.477500", "112257.477500", "112301.477500", "112305.477500", "112309.477500", "112313.477500", "112317.477500", "112321.477500", "112325.477500", "112329.477500", "112333.477500", "112337.477500", "112341.477500", "112345.477500", "112349.477500", "112353.477500", "112357.477500", "112401.477500", "112405.477500", "112409.477500", "112413.477500", "112417.477500", "112421.477500", "112425.477500", "112429.477500", "112433.477500", "112437.477500", "112441.477500", "112445.477500", "112449.477500", "112453.477500", "112457.477500", "112501.477500", "112505.477500", "112509.477500", "112513.477500", "112517.477500", "112521.477500", "112525.477500", "112529.477500", "112533.477500", "112537.477500", "112541.477500", "112545.477500", "112549.477500", "112553.477500", "112557.477500", "112601.477500", "112605.477500", "112609.477500", "112613.477500", "112617.477500", "112621.477500", "112625.477500", "112629.477500", "112633.477500", "112637.477500", "112641.477500", "112645.477500", "112649.477500", "112653.477500", "112657.477500", "112701.477500", "112705.477500", "112709.477500", "112713.477500", "112717.477500", "112721.477500", "112725.477500", "112729.477500", "112733.477500", "112737.477500", "112741.477500", "112745.477500", "112749.477500", "112753.477500", "112757.477500", "112801.477500", "112805.477500", "112809.477500", "112813.477500", "112817.477500", "112821.477500", "112825.477500", "112829.477500", "112833.477500", "112837.477500", "112841.477500", "112845.477500", "112849.477500", "112853.477500", "112857.477500", "112901.477500", "112905.477500", "112909.477500", "112913.477500", "112917.477500", "112921.477500", "112925.477500", "112929.477500", "112933.477500", "112937.477500", "112941.477500", "112945.477500", "112949.477500", "112953.477500", "112957.477500", "113001.477500", "113005.477500", "113009.477500", "113013.477500", "113017.477500", "113021.477500", "113025.477500", "113029.477500", "113033.477500", "113037.477500", "113041.477500", "113045.477500", "113049.477500", "113053.477500", "113057.477500", "113101.477500", "113105.477500", "113109.477500", "113113.477500", "113117.477500", "113121.477500", "113125.477500", "113129.477500", "113133.477500", "113137.477500", "113141.477500", "113145.477500", "113149.477500", "113153.477500", "113157.477500", "113201.477500", "113205.477500", "113209.477500", "113213.477500", "113217.477500", "113221.477500", "113225.477500", "113229.477500", "113233.477500", "113237.477500", "113241.477500", "113245.477500", "113249.477500", "113253.477500", "113257.477500", "113301.477500", "113305.477500", "113309.477500", "113313.477500", "113317.477500", "113321.477500", "113325.477500", "113329.477500", "113333.477500", "113337.477500", "113341.477500", "113345.477500", "113349.477500", "113353.477500", "113357.477500", "113401.477500", "113405.477500", "113409.477500", "113413.477500", "113417.477500", "113421.477500", "113425.477500", "113429.477500", "113433.477500", "113437.477500", "113441.477500", "113445.477500", "113449.477500", "113453.477500", "113457.477500", "113501.477500", "113505.477500", "113509.477500", "113513.477500", "113517.477500", "113521.477500", "113525.477500", "113529.477500", "113533.477500", "113537.477500", "113541.477500", "113545.477500", "113549.477500", "113553.477500", "113557.477500", "113601.477500", "113605.477500", "113609.477500", "113613.477500", "113617.477500", "113621.477500", "113625.477500", "113629.477500", "113633.477500", "113637.477500", "113641.477500", "113645.477500", "113649.477500", "113653.477500", "113657.477500", "113701.477500", "113705.477500", "113709.477500", "113713.477500", "113717.477500", "113721.477500", "113725.477500", "113729.477500", "113733.477500", "113737.477500", "113741.477500", "113745.477500", "113749.477500", "113753.477500", "113757.477500", "113801.477500", "113805.477500", "113809.477500", "113813.477500", "113817.477500", "113821.477500", "113825.477500", "113829.477500", "113833.477500", "113837.477500", "113841.477500", "113845.477500", "113849.477500", "113853.477500", "113857.477500", "113901.477500", "113905.477500", "113909.477500", "113913.477500", "113917.477500", "113921.477500", "113925.477500", "113929.477500", "113933.477500", "113937.477500", "113941.477500", "113945.477500", "113949.477500", "113953.477500", "113957.477500", "114001.477500", "114005.477500", "114009.477500", "114013.477500", "114017.477500", "114021.477500", "114025.477500", "114029.477500", "114033.477500", "114037.477500", "114041.477500", "114045.477500", "114049.477500", "114053.477500", "114057.477500", "114101.477500", "114105.477500", "114109.477500", "114113.477500", "114117.477500", "114121.477500", "114125.477500", "114129.477500", "114133.477500", "114137.477500", "114141.477500", "114145.477500", "114149.477500", "114153.477500", "114157.477500", "114201.477500", "114205.477500", "114209.477500", "114213.477500", "114217.477500", "114221.477500", "114225.477500", "114229.477500", "114233.477500", "114237.477500", "114241.477500", "114245.477500", "114249.477500", "114253.477500", "114257.477500", "114301.477500", "114305.477500", "114309.477500", "114313.477500", "114317.477500", "114321.477500", "114325.477500", "114329.477500", "114333.477500", "114337.477500", "114341.477500", "114345.477500", "114349.477500", "114353.477500", "114357.477500", "114401.477500", "114405.477500", "114409.477500", "114413.477500", "114417.477500", "114421.477500", "114425.477500", "114429.477500", "114433.477500", "114437.477500", "114441.477500", "114445.477500", "114449.477500", "114453.477500", "114457.477500", "114501.477500", "114505.477500", "114509.477500", "114513.477500", "114517.477500", "114521.477500", "114525.477500", "114529.477500", "114533.477500", "114537.477500", "114541.477500", "114545.477500", "114549.477500", "114553.477500", "114557.477500", "114601.477500", "114605.477500", "114609.477500", "114613.477500", "114617.477500", "114621.477500", "114625.477500", "114629.477500", "114633.477500", "114637.477500", "114641.477500", "114645.477500", "114649.477500", "114653.477500", "114657.477500", "114701.477500", "114705.477500", "114709.477500", "114713.477500", "114717.477500", "114721.477500", "114725.477500", "114729.477500", "114733.477500", "114737.477500", "114741.477500", "114745.477500", "114749.477500", "114753.477500", "114757.477500", "114801.477500", "114805.477500", "114809.477500", "114813.477500", "114817.477500", "114821.477500", "114825.477500", "114829.477500", "114833.477500", "114837.477500", "114841.477500", "114845.477500", "114849.477500", "114853.477500", "114857.477500", "114901.477500", "114905.477500", "114909.477500", "114913.477500", "114917.477500", "114921.477500", "114925.477500", "114929.477500", "114933.477500", "114937.477500", "114941.477500", "114945.477500", "114949.477500", "114953.477500", "114957.477500", "115001.477500", "115005.477500", "115009.477500", "115013.477500", "115017.477500", "115021.477500", "115025.477500", "115029.477500", "115033.477500", "115037.477500", "115041.477500", "115045.477500", "115049.477500", "115053.477500", "115057.477500", "115101.477500", "115105.477500", "115109.477500", "115113.477500", "115117.477500", "115121.477500", "115125.477500", "115129.477500", "115133.477500", "115137.477500", "115141.477500", "115145.477500", "115149.477500", "115153.477500", "115157.477500", "115201.477500", "115205.477500", "115209.477500", "115213.477500", "115217.477500", "115221.477500", "115225.477500", "115229.477500", "115233.477500", "115237.477500", "115241.477500", "115245.477500", "115249.477500", "115253.477500", "115257.477500", "115301.477500", "115305.477500", "115309.477500", "115313.477500", "115317.477500", "115321.477500", "115325.477500", "115329.477500", "115333.477500", "115337.477500", "115341.477500", "115345.477500", "115349.477500", "115353.477500", "115357.477500", "115401.477500", "115405.477500", "115409.477500", "115413.477500", "115417.477500", "115421.477500", "115425.477500", "115429.477500", "115433.477500", "115437.477500", "115441.477500", "115445.477500", "115449.477500", "115453.477500", "115457.477500", "115501.477500", "115505.477500", "115509.477500", "115513.477500", "115517.477500", "115521.477500", "115525.477500", "115529.477500", "115533.477500", "115537.477500", "115541.477500", "115545.477500", "115549.477500", "115553.477500", "115557.477500", "115601.477500", "115605.477500", "115609.477500", "115613.477500", "115617.477500", "115621.477500", "115625.477500", "115629.477500", "115633.477500", "115637.477500", "115641.477500", "115645.477500", "115649.477500", "115653.477500", "115657.477500", "115701.477500", "115705.477500", "115709.477500", "115713.477500", "115717.477500", "115721.477500", "115725.477500", "115729.477500", "115733.477500", "115737.477500", "115741.477500", "115745.477500", "115749.477500", "115753.477500", "115757.477500", "115801.477500", "115805.477500", "115809.477500", "115813.477500", "1158