{
  "AcquisitionMatrixPE": 64,
  "AcquisitionNumber": 1,
  "AcquisitionTime": "10:49:40.077500",
  "BaseResolution": 64,
  "BodyPartExamined": "BRAIN",
  "ConsistencyInfo": "N4_VE11P_LATEST_20161021",
  "ConversionSoftware": "dcm2niix",
  "ConversionSoftwareVersion": "v1.0.20190410  GCC6.3.0",
  "DeviceSerialNumber": "51066",
  "DwellTime": 3e-05,
  "EchoNumber": 2,
  "EchoTime": 0.00765,
  "EchoTime1": 0.00519,
  "EchoTime2": 0.00765,
  "FlipAngle": 60,
  "ImageOrientationPatientDICOM": [1, 0, 0, 0, 1, 0],
  "ImageType": [
    "ORIGINAL",
    "PRIMARY",
    "P",
    "ND"
],
  "ImagingFrequency": 123.239,
  "InPlanePhaseEncodingDirectionDICOM": "ROW",
  "InstitutionAddress": "Blackburn_Road_770_Clayton_Victoria_AU_3168",
  "InstitutionName": "MONASH_BIOMEDICAL_IMAGING",
  "InstitutionalDepartmentName": "Department",
  "MRAcquisitionType": "2D",
  "MagneticFieldStrength": 3,
  "Manufacturer": "Siemens",
  "ManufacturersModelName": "Biograph_mMR",
  "Modality": "MR",
  "PartialFourier": 1,
  "PatientPosition": "HFS",
  "PercentPhaseFOV": 100,
  "PhaseEncodingDirection": "i",
  "PhaseEncodingSteps": 64,
  "PhaseResolution": 1,
  "PixelBandwidth": 260,
  "ProcedureStepDescription": "MR-PET_Scan",
  "ProtocolName": "gre_field_mapping",
  "PulseSequenceDetails": "%SiemensSeq%_gre_field_mapping",
  "ReceiveCoilActiveElements": "HEA;HEP",
  "ReceiveCoilName": "HeadNeck_MRPET",
  "ReconMatrixPE": 64,
  "RepetitionTime": 0.488,
  "SAR": 0.131071,
  "ScanningSequence": "GR",
  "SequenceName": "_fm2d2r",
  "SequenceVariant": "SP",
  "SeriesDescription": "gre_field_mapping",
  "SeriesNumber": 13,
  "ShimSetting": [-8337, -1004, -3927, 604, -354, 323, -348, -164],
  "SliceThickness": 3,
  "SliceTiming": [0.000735, -0.001, -0.001, -0.001, -0.001, -0.001, -0.001, -0.001, -0.001, -0.001, -0.001, -0.001, -0.001, -0.001, -0.001, -0.001, -0.001, -0.001, -0.001, -0.001, -0.001, -0.001, -0.001, -0.001, -0.001, -0.001, -0.001, -0.001, -0.001, -0.001, -0.001, -0.001, -0.001, -0.001, -0.001, -0.001, -0.001, -0.001, -0.001, -0.001, -0.001, -0.001, -0.001, -0.001],
  "SoftwareVersions": "syngo_MR_E11",
  "SpacingBetweenSlices": 3,
  "StationName": "MRC51066",
  "TxRefAmp": 292.776,
  "dcmmeta_affine": [
    [-2.96875, 0.0, 0.0, 100.25782775878906],
    [0.0, 2.96875, 0.0, -79.5093994140625],
    [0.0, 0.0, 3.0, -54.841102600097656],
    [0.0, 0.0, 0.0, 1.0]
],
  "dcmmeta_reorient_transform": [
    [0.0, -1.0, 0.0, 63.0],
    [1.0, 0.0, 0.0, 0.0],
    [0.0, 0.0, -1.0, 43.0],
    [0.0, 0.0, 0.0, 1.0]
],
  "dcmmeta_shape": [64, 64, 44],
  "dcmmeta_slice_dim": 2,
  "dcmmeta_version": 0.6,
  "global": {
    "const": {
      "AcquisitionMatrix": [0, 64, 64, 0],
      "AcquisitionNumber": 1,
      "Allergies": "None",
      "AngioFlag": "N",
      "BitsAllocated": 16,
      "BitsStored": 12,
      "BodyPartExamined": "BRAIN",
      "Columns": 64,
      "EchoNumbers": 2,
      "EchoTime": 7.65,
      "EchoTrainLength": 0,
      "FlipAngle": 60.0,
      "HighBit": 11,
      "ImageOrientationPatient": [1.0, 0.0, 0.0, 0.0, 1.0, 0.0],
      "ImageType": [
        "ORIGINAL",
        "PRIMARY",
        "P",
        "ND"
],
      "ImagedNucleus": "1H",
      "ImagingFrequency": 123.239263,
      "InPlanePhaseEncodingDirection": "ROW",
      "MRAcquisitionType": "2D",
      "MagneticFieldStrength": 3.0,
      "Manufacturer": "SIEMENS",
      "ManufacturerModelName": "Biograph_mMR",
      "MedicalAlerts": "None",
      "Modality": "MR",
      "NumberOfAverages": 1.0,
      "NumberOfPhaseEncodingSteps": 64,
      "PercentPhaseFieldOfView": 100.0,
      "PercentSampling": 100.0,
      "PerformedProcedureStepStartTime": "102130.005000",
      "PhotometricInterpretation": "MONOCHROME2",
      "PixelBandwidth": 260.0,
      "PixelRepresentation": 0,
      "PixelSpacing": [2.96875, 2.96875],
      "PregnancyStatus": 4,
      "ProtocolName": "gre_field_mapping",
      "RepetitionTime": 488.0,
      "RequestAttributesSequence": [
        {
          "RequestedProcedureID": "MMH004",
          "ScheduledProcedureStepDescription": "MR-PET Scan",
          "ScheduledProcedureStepID": "001"}
],
      "RescaleIntercept": -4096.0,
      "RescaleSlope": 2.0,
      "RescaleType": "US",
      "Rows": 64,
      "SAR": 0.1310708086283,
      "SamplesPerPixel": 1,
      "ScanningSequence": "GR",
      "SequenceName": "*fm2d2r",
      "SequenceVariant": "SP",
      "SeriesDescription": "gre_field_mapping",
      "SeriesNumber": 13,
      "SeriesTime": "105042.083000",
      "SliceThickness": 3.0,
      "SoftwareVersions": "syngo MR E11",
      "SpacingBetweenSlices": 3.0,
      "SpecificCharacterSet": "ISO_IR 100",
      "StudyID": "MMH004",
      "StudyTime": "102129.823000",
      "TransmitCoilName": "Body",
      "VariableFlipAngleFlag": "N",
      "WindowCenterWidthExplanation": "Algo1",
      "dBdt": 0.0},
    "slices": {
      "AcquisitionTime": ["104940.077500", "104939.832500", "104940.087500", "104939.845000", "104940.100000", "104939.855000", "104940.110000", "104939.867500", "104940.122500", "104939.877500", "104940.132500", "104939.890000", "104940.145000", "104939.900000", "104940.155000", "104939.910000", "104940.165000", "104939.922500", "104940.177500", "104939.932500", "104940.187500", "104939.945000", "104940.200000", "104939.955000", "104940.210000", "104939.967500", "104940.222500", "104939.977500", "104940.232500", "104939.990000", "104940.245000", "104940.000000", "104940.255000", "104940.010000", "104940.265000", "104940.022500", "104940.277500", "104940.032500", "104940.287500", "104940.045000", "104940.300000", "104940.055000", "104940.310000", "104940.067500"],
      "ContentTime": ["105042.131000", "105042.085000", "105042.133000", "105042.092000", "105042.135000", "105042.094000", "105042.136000", "105042.095000", "105042.138000", "105042.097000", "105042.139000", "105042.103000", "105042.141000", "105042.105000", "105042.143000", "105042.107000", "105042.144000", "105042.108000", "105042.146000", "105042.110000", "105042.147000", "105042.112000", "105042.149000", "105042.113000", "105042.151000", "105042.115000", "105042.152000", "105042.117000", "105042.154000", "105042.118000", "105042.156000", "105042.120000", "105042.157000", "105042.121000", "105042.159000", "105042.123000", "105042.161000", "105042.125000", "105042.162000", "105042.126000", "105042.164000", "105042.128000", "105042.166000", "105042.130000"],
      "CsaImage.ICE_Dims": [
        "X_2_1_1_1_1_1_23_1_1_1_1_28",
        "X_2_1_1_1_1_1_1_1_1_2_1_28",
        "X_2_1_1_1_1_1_24_1_1_3_1_28",
        "X_2_1_1_1_1_1_2_1_1_4_1_28",
        "X_2_1_1_1_1_1_25_1_1_5_1_28",
        "X_2_1_1_1_1_1_3_1_1_6_1_28",
        "X_2_1_1_1_1_1_26_1_1_7_1_28",
        "X_2_1_1_1_1_1_4_1_1_8_1_28",
        "X_2_1_1_1_1_1_27_1_1_9_1_28",
        "X_2_1_1_1_1_1_5_1_1_10_1_28",
        "X_2_1_1_1_1_1_28_1_1_11_1_28",
        "X_2_1_1_1_1_1_6_1_1_12_1_28",
        "X_2_1_1_1_1_1_29_1_1_13_1_28",
        "X_2_1_1_1_1_1_7_1_1_14_1_28",
        "X_2_1_1_1_1_1_30_1_1_15_1_28",
        "X_2_1_1_1_1_1_8_1_1_16_1_28",
        "X_2_1_1_1_1_1_31_1_1_17_1_28",
        "X_2_1_1_1_1_1_9_1_1_18_1_28",
        "X_2_1_1_1_1_1_32_1_1_19_1_28",
        "X_2_1_1_1_1_1_10_1_1_20_1_28",
        "X_2_1_1_1_1_1_33_1_1_21_1_28",
        "X_2_1_1_1_1_1_11_1_1_22_1_28",
        "X_2_1_1_1_1_1_34_1_1_23_1_28",
        "X_2_1_1_1_1_1_12_1_1_24_1_28",
        "X_2_1_1_1_1_1_35_1_1_25_1_28",
        "X_2_1_1_1_1_1_13_1_1_26_1_28",
        "X_2_1_1_1_1_1_36_1_1_27_1_28",
        "X_2_1_1_1_1_1_14_1_1_28_1_28",
        "X_2_1_1_1_1_1_37_1_1_29_1_28",
        "X_2_1_1_1_1_1_15_1_1_30_1_28",
        "X_2_1_1_1_1_1_38_1_1_31_1_28",
        "X_2_1_1_1_1_1_16_1_1_32_1_28",
        "X_2_1_1_1_1_1_39_1_1_33_1_28",
        "X_2_1_1_1_1_1_17_1_1_34_1_28",
        "X_2_1_1_1_1_1_40_1_1_35_1_28",
        "X_2_1_1_1_1_1_18_1_1_36_1_28",
        "X_2_1_1_1_1_1_41_1_1_37_1_28",
        "X_2_1_1_1_1_1_19_1_1_38_1_28",
        "X_2_1_1_1_1_1_42_1_1_39_1_28",
        "X_2_1_1_1_1_1_20_1_1_40_1_28",
        "X_2_1_1_1_1_1_43_1_1_41_1_28",
        "X_2_1_1_1_1_1_21_1_1_42_1_28",
        "X_2_1_1_1_1_1_44_1_1_43_1_28",
        "X_2_1_1_1_1_1_22_1_1_44_1_28"
],
      "CsaImage.ProtocolSliceNumber": [0, 1, 2, 3, 4, 5, 6, 7, 8, 9, 10, 11, 12, 13, 14, 15, 16, 17, 18, 19, 20, 21, 22, 23, 24, 25, 26, 27, 28, 29, 30, 31, 32, 33, 34, 35, 36, 37, 38, 39, 40, 41, 42, 43],
      "CsaImage.SliceMeasurementDuration": [61487.5, 61490.0, 61490.0, 61487.5, 61487.5, 61487.5, 61487.5, 61487.5, 61487.5, 61487.5, 61487.5, 61487.5, 61487.5, 61487.5, 61487.5, 61490.0, 61490.0, 61487.5, 61487.5, 61490.0, 61490.0, 61487.5, 61487.5, 61487.5, 61487.5, 61487.5, 61487.5, 61487.5, 61487.5, 61487.5, 61487.5, 61487.5, 61487.5, 61490.0, 61490.0, 61487.5, 61487.5, 61487.5, 61487.5, 61487.5, 61487.5, 61487.5, 61487.5, 61487.5],
      "CsaImage.SlicePosition_PCS": [
        [-100.2578311, -107.52185059, -54.84110641],
        [-100.2578311, -107.52185059, -51.84110641],
        [-100.2578311, -107.52185059, -48.84110641],
        [-100.2578311, -107.52185059, -45.84110641],
        [-100.2578311, -107.52185059, -42.84110641],
        [-100.2578311, -107.52185059, -39.84110641],
        [-100.2578311, -107.52185059, -36.84110641],
        [-100.2578311, -107.52185059, -33.84110641],
        [-100.2578311, -107.52185059, -30.84110641],
        [-100.2578311, -107.52185059, -27.84110641],
        [-100.2578311, -107.52185059, -24.84110641],
        [-100.2578311, -107.52185059, -21.84110641],
        [-100.2578311, -107.52185059, -18.84110641],
        [-100.2578311, -107.52185059, -15.84110641],
        [-100.2578311, -107.52185059, -12.84110641],
        [-100.2578311, -107.52185059, -9.84110641],
        [-100.2578311, -107.52185059, -6.84110641],
        [-100.2578311, -107.52185059, -3.84110618],
        [-100.2578311, -107.52185059, -0.84110618],
        [-100.2578311, -107.52185059, 2.15889382],
        [-100.2578311, -107.52185059, 5.15889359],
        [-100.2578311, -107.52185059, 8.15889359],
        [-100.2578311, -107.52185059, 11.15889359],
        [-100.2578311, -107.52185059, 14.15889359],
        [-100.2578311, -107.52185059, 17.15889359],
        [-100.2578311, -107.52185059, 20.15889359],
        [-100.2578311, -107.52185059, 23.15889359],
        [-100.2578311, -107.52185059, 26.15889359],
        [-100.2578311, -107.52185059, 29.15889359],
        [-100.2578311, -107.52185059, 32.15889359],
        [-100.2578311, -107.52185059, 35.15889359],
        [-100.2578311, -107.52185059, 38.15889359],
        [-100.2578311, -107.52185059, 41.15889359],
        [-100.2578311, -107.52185059, 44.15889359],
        [-100.2578311, -107.52185059, 47.15889359],
        [-100.2578311, -107.52185059, 50.15889359],
        [-100.2578311, -107.52185059, 53.15889359],
        [-100.2578311, -107.52185059, 56.15889359],
        [-100.2578311, -107.52185059, 59.15889359],
        [-100.2578311, -107.52185059, 62.15889359],
        [-100.2578311, -107.52185059, 65.1588974],
        [-100.2578311, -107.52185059, 68.1588974],
        [-100.2578311, -107.52185059, 71.1588974],
        [-100.2578311, -107.52185059, 74.1588974]
],
      "CsaImage.TimeAfterStart": [0.735, 0.49, 0.745, 0.5025, 0.7575, 0.5125, 0.7675, 0.525, 0.78, 0.535, 0.79, 0.545, 0.8, 0.5575, 0.8125, 0.5675, 0.8225, 0.58, 0.835, 0.59, 0.845, 0.6025, 0.8575, 0.6125, 0.8675, 0.6225, 0.8775, 0.635, 0.89, 0.645, 0.9, 0.6575, 0.9125, 0.6675, 0.9225, 0.68, 0.935, 0.69, 0.945, 0.7, 0.9575, 0.7125, 0.9675, 0.7225],
      "ImagePositionPatient": [
        [-100.25783109665, -107.52185058594, -54.841106414795],
        [-100.25783109665, -107.52185058594, -51.841106414795],
        [-100.25783109665, -107.52185058594, -48.841106414795],
        [-100.25783109665, -107.52185058594, -45.841106414795],
        [-100.25783109665, -107.52185058594, -42.841106414795],
        [-100.25783109665, -107.52185058594, -39.841106414795],
        [-100.25783109665, -107.52185058594, -36.841106414795],
        [-100.25783109665, -107.52185058594, -33.841106414795],
        [-100.25783109665, -107.52185058594, -30.841106414795],
        [-100.25783109665, -107.52185058594, -27.841106414795],
        [-100.25783109665, -107.52185058594, -24.841106414795],
        [-100.25783109665, -107.52185058594, -21.841106414795],
        [-100.25783109665, -107.52185058594, -18.841106414795],
        [-100.25783109665, -107.52185058594, -15.841106414795],
        [-100.25783109665, -107.52185058594, -12.841106414795],
        [-100.25783109665, -107.52185058594, -9.8411064147949],
        [-100.25783109665, -107.52185058594, -6.8411064147949],
        [-100.25783109665, -107.52185058594, -3.8411061763763],
        [-100.25783109665, -107.52185058594, -0.8411061763763],
        [-100.25783109665, -107.52185058594, 2.1588938236237],
        [-100.25783109665, -107.52185058594, 5.1588935852051],
        [-100.25783109665, -107.52185058594, 8.1588935852051],
        [-100.25783109665, -107.52185058594, 11.158893585205],
        [-100.25783109665, -107.52185058594, 14.158893585205],
        [-100.25783109665, -107.52185058594, 17.158893585205],
        [-100.25783109665, -107.52185058594, 20.158893585205],
        [-100.25783109665, -107.52185058594, 23.158893585205],
        [-100.25783109665, -107.52185058594, 26.158893585205],
        [-100.25783109665, -107.52185058594, 29.158893585205],
        [-100.25783109665, -107.52185058594, 32.158893585205],
        [-100.25783109665, -107.52185058594, 35.158893585205],
        [-100.25783109665, -107.52185058594, 38.158893585205],
        [-100.25783109665, -107.52185058594, 41.158893585205],
        [-100.25783109665, -107.52185058594, 44.158893585205],
        [-100.25783109665, -107.52185058594, 47.158893585205],
        [-100.25783109665, -107.52185058594, 50.158893585205],
        [-100.25783109665, -107.52185058594, 53.158893585205],
        [-100.25783109665, -107.52185058594, 56.158893585205],
        [-100.25783109665, -107.52185058594, 59.158893585205],
        [-100.25783109665, -107.52185058594, 62.158893585205],
        [-100.25783109665, -107.52185058594, 65.158897399902],
        [-100.25783109665, -107.52185058594, 68.158897399902],
        [-100.25783109665, -107.52185058594, 71.158897399902],
        [-100.25783109665, -107.52185058594, 74.158897399902]
],
      "InstanceCreationTime": ["105042.131000", "105042.085000", "105042.133000", "105042.092000", "105042.135000", "105042.094000", "105042.136000", "105042.095000", "105042.138000", "105042.097000", "105042.139000", "105042.103000", "105042.141000", "105042.105000", "105042.143000", "105042.107000", "105042.144000", "105042.108000", "105042.146000", "105042.110000", "105042.147000", "105042.112000", "105042.149000", "105042.113000", "105042.151000", "105042.115000", "105042.152000", "105042.117000", "105042.154000", "105042.118000", "105042.156000", "105042.120000", "105042.157000", "105042.121000", "105042.159000", "105042.123000", "105042.161000", "105042.125000", "105042.162000", "105042.126000", "105042.164000", "105042.128000", "105042.166000", "105042.130000"],
      "InstanceNumber": [1, 2, 3, 4, 5, 6, 7, 8, 9, 10, 11, 12, 13, 14, 15, 16, 17, 18, 19, 20, 21, 22, 23, 24, 25, 26, 27, 28, 29, 30, 31, 32, 33, 34, 35, 36, 37, 38, 39, 40, 41, 42, 43, 44],
      "LargestImagePixelValue": [4095, 4095, 4093, 4092, 4070, 4087, 4073, 4094, 4094, 4094, 4091, 4093, 4095, 4089, 4075, 4082, 4072, 4052, 4080, 4079, 4080, 4084, 4083, 4078, 4079, 4091, 4093, 4070, 4088, 4087, 4094, 4095, 4092, 4091, 4088, 4090, 4088, 4093, 4092, 4090, 4094, 4094, 4095, 4092],
      "SliceLocation": [-54.841106414795, -51.841106414795, -48.841106414795, -45.841106414795, -42.841106414795, -39.841106414795, -36.841106414795, -33.841106414795, -30.841106414795, -27.841106414795, -24.841106414795, -21.841106414795, -18.841106414795, -15.841106414795, -12.841106414795, -9.8411064147949, -6.8411064147949, -3.8411061763763, -0.8411061763763, 2.1588938236237, 5.1588935852051, 8.1588935852051, 11.158893585205, 14.158893585205, 17.158893585205, 20.158893585205, 23.158893585205, 26.158893585205, 29.158893585205, 32.158893585205, 35.158893585205, 38.158893585205, 41.158893585205, 44.158893585205, 47.158893585205, 50.158893585205, 53.158893585205, 56.158893585205, 59.158893585205, 62.158893585205, 65.158897399902, 68.158897399902, 71.158897399902, 74.158897399902],
      "SmallestImagePixelValue": [0, 0, 0, 0, 1, 1, 7, 7, 5, 1, 3, 6, 11, 7, 6, 24, 6, 8, 1, 17, 14, 30, 3, 33, 8, 0, 1, 34, 7, 13, 7, 12, 10, 2, 3, 12, 0, 1, 0, 0, 4, 2, 0, 5],
      "WindowCenter": [-258.0, -234.0, -124.0, -206.0, -256.0, -274.0, -124.0, -190.0, -186.0, -220.0, -258.0, -374.0, -188.0, -128.0, -262.0, -224.0, -222.0, -230.0, -220.0, -252.0, -258.0, -258.0, -240.0, -98.0, -240.0, -134.0, -98.0, -100.0, -68.0, -242.0, -38.0, -74.0, -40.0, -58.0, -106.0, -130.0, -98.0, -118.0, -254.0, -332.0, -448.0, -378.0, -446.0, -464.0],
      "WindowWidth": [6154.0, 6124.0, 6166.0, 6094.0, 5988.0, 5826.0, 5886.0, 5848.0, 5766.0, 5600.0, 5272.0, 4646.0, 5266.0, 5282.0, 4544.0, 4544.0, 4544.0, 4564.0, 4562.0, 4584.0, 4590.0, 4590.0, 4580.0, 5122.0, 4588.0, 5016.0, 5100.0, 5228.0, 5288.0, 4608.0, 5366.0, 5318.0, 5356.0, 5468.0, 5352.0, 5226.0, 5536.0, 5536.0, 4768.0, 4810.0, 4898.0, 4930.0, 4946.0, 5030.0]
    }
  }
}