{
  "AcquisitionMatrixPE": 64,
  "AcquisitionNumber": 1,
  "AcquisitionTime": "10:24:0.972500",
  "BaseResolution": 64,
  "BodyPartExamined": "BRAIN",
  "CoilString": "HEA;HEP;NEP",
  "ConsistencyInfo": "N4_VE11P_LATEST_20161021",
  "ConversionSoftware": "dcm2niix",
  "ConversionSoftwareVersion": "v1.0.20190410  GCC6.3.0",
  "DeviceSerialNumber": "51066",
  "DwellTime": 3e-05,
  "EchoNumber": 2,
  "EchoTime": 0.00765,
  "EchoTime1": 0.00519,
  "EchoTime2": 0.00765,
  "FlipAngle": 60,
  "ImageOrientationPatientDICOM": [1, 4.897e-12, 0, -4.897e-12, 1, 0],
  "ImageType": [
    "ORIGINAL",
    "PRIMARY",
    "P",
    "ND"
],
  "ImagingFrequency": 123.239,
  "InPlanePhaseEncodingDirectionDICOM": "ROW",
  "InstitutionAddress": "Blackburn_Road_770_Clayton_Victoria_AU_3168",
  "InstitutionName": "MONASH_BIOMEDICAL_IMAGING",
  "InstitutionalDepartmentName": "Department",
  "MRAcquisitionType": "2D",
  "MagneticFieldStrength": 3,
  "Manufacturer": "Siemens",
  "ManufacturersModelName": "Biograph_mMR",
  "Modality": "MR",
  "PartialFourier": 1,
  "PatientPosition": "HFS",
  "PercentPhaseFOV": 100,
  "PhaseEncodingDirection": "i",
  "PhaseEncodingSteps": 64,
  "PhaseResolution": 1,
  "PixelBandwidth": 260,
  "ProcedureStepDescription": "MR-PET_Scan",
  "ProtocolName": "gre_field_mapping",
  "PulseSequenceDetails": "%SiemensSeq%_gre_field_mapping",
  "ReceiveCoilName": "HeadNeck_MRPET",
  "ReconMatrixPE": 64,
  "RepetitionTime": 0.488,
  "SAR": 0.192285,
  "ScanningSequence": "GR",
  "SequenceName": "_fm2d2r",
  "SequenceVariant": "SP",
  "SeriesDescription": "gre_field_mapping",
  "SeriesNumber": 12,
  "ShimSetting": [-8376, -1042, -3658, 589, -381, 295, -493, -135],
  "SliceThickness": 3,
  "SliceTiming": [0.000735, -0.001, -0.001, -0.001, -0.001, -0.001, -0.001, -0.001, -0.001, -0.001, -0.001, -0.001, -0.001, -0.001, -0.001, -0.001, -0.001, -0.001, -0.001, -0.001, -0.001, -0.001, -0.001, -0.001, -0.001, -0.001, -0.001, -0.001, -0.001, -0.001, -0.001, -0.001, -0.001, -0.001, -0.001, -0.001, -0.001, -0.001, -0.001, -0.001, -0.001, -0.001, -0.001, -0.001],
  "SoftwareVersions": "syngo_MR_E11",
  "SpacingBetweenSlices": 3,
  "StationName": "MRC51066",
  "TxRefAmp": 319.865,
  "dcmmeta_affine": [
    [-2.96875, -1.4537968918981736e-11, 0.0, 96.19515228271484],
    [-1.4537968918981736e-11, 2.96875, 0.0, -50.86407470703125],
    [0.0, 0.0, 3.0, 3.6036834716796875],
    [0.0, 0.0, 0.0, 1.0]
],
  "dcmmeta_reorient_transform": [
    [0.0, -1.0, 0.0, 63.0],
    [1.0, 0.0, 0.0, 0.0],
    [0.0, 0.0, -1.0, 43.0],
    [0.0, 0.0, 0.0, 1.0]
],
  "dcmmeta_shape": [64, 64, 44],
  "dcmmeta_slice_dim": 2,
  "dcmmeta_version": 0.6,
  "global": {
    "const": {
      "AcquisitionMatrix": [0, 64, 64, 0],
      "AcquisitionNumber": 1,
      "Allergies": "None",
      "AngioFlag": "N",
      "BitsAllocated": 16,
      "BitsStored": 12,
      "BodyPartExamined": "BRAIN",
      "Columns": 64,
      "EchoNumbers": 2,
      "EchoTime": 7.65,
      "EchoTrainLength": 0,
      "FlipAngle": 60.0,
      "HighBit": 11,
      "ImageOrientationPatient": [1.0, 4.897e-12, 0.0, -4.897e-12, 1.0, 0.0],
      "ImageType": [
        "ORIGINAL",
        "PRIMARY",
        "P",
        "ND"
],
      "ImagedNucleus": "1H",
      "ImagingFrequency": 123.239173,
      "InPlanePhaseEncodingDirection": "ROW",
      "MRAcquisitionType": "2D",
      "MagneticFieldStrength": 3.0,
      "Manufacturer": "SIEMENS",
      "ManufacturerModelName": "Biograph_mMR",
      "MedicalAlerts": "None",
      "Modality": "MR",
      "NumberOfAverages": 1.0,
      "NumberOfPhaseEncodingSteps": 64,
      "PercentPhaseFieldOfView": 100.0,
      "PercentSampling": 100.0,
      "PerformedProcedureStepStartTime": "093425.097000",
      "PhotometricInterpretation": "MONOCHROME2",
      "PixelBandwidth": 260.0,
      "PixelRepresentation": 0,
      "PixelSpacing": [2.96875, 2.96875],
      "PregnancyStatus": 4,
      "ProtocolName": "gre_field_mapping",
      "RepetitionTime": 488.0,
      "RequestAttributesSequence": [
        {
          "RequestedProcedureID": "MMH004",
          "ScheduledProcedureStepDescription": "MR-PET Scan",
          "ScheduledProcedureStepID": "001"}
],
      "RescaleIntercept": -4096.0,
      "RescaleSlope": 2.0,
      "RescaleType": "US",
      "Rows": 64,
      "SAR": 0.19228510366053,
      "SamplesPerPixel": 1,
      "ScanningSequence": "GR",
      "SequenceName": "*fm2d2r",
      "SequenceVariant": "SP",
      "SeriesDescription": "gre_field_mapping",
      "SeriesNumber": 12,
      "SeriesTime": "102502.654000",
      "SliceThickness": 3.0,
      "SoftwareVersions": "syngo MR E11",
      "SpacingBetweenSlices": 3.0,
      "SpecificCharacterSet": "ISO_IR 100",
      "StudyID": "MMH004",
      "StudyTime": "093424.929000",
      "TransmitCoilName": "Body",
      "VariableFlipAngleFlag": "N",
      "WindowCenterWidthExplanation": "Algo1",
      "dBdt": 0.0},
    "slices": {
      "AcquisitionTime": ["102400.972500", "102400.727500", "102400.982500", "102400.740000", "102400.995000", "102400.750000", "102401.005000", "102400.760000", "102401.017500", "102400.772500", "102401.027500", "102400.782500", "102401.037500", "102400.795000", "102401.050000", "102400.805000", "102401.060000", "102400.817500", "102401.072500", "102400.827500", "102401.082500", "102400.840000", "102401.095000", "102400.850000", "102401.105000", "102400.860000", "102401.115000", "102400.872500", "102401.127500", "102400.882500", "102401.137500", "102400.895000", "102401.150000", "102400.905000", "102401.160000", "102400.917500", "102401.172500", "102400.927500", "102401.182500", "102400.937500", "102401.192500", "102400.950000", "102401.205000", "102400.960000"],
      "ContentTime": ["102502.697000", "102502.656000", "102502.699000", "102502.658000", "102502.701000", "102502.660000", "102502.702000", "102502.661000", "102502.704000", "102502.663000", "102502.706000", "102502.665000", "102502.707000", "102502.666000", "102502.709000", "102502.668000", "102502.711000", "102502.670000", "102502.712000", "102502.671000", "102502.714000", "102502.673000", "102502.715000", "102502.674000", "102502.717000", "102502.676000", "102502.719000", "102502.677000", "102502.721000", "102502.679000", "102502.722000", "102502.681000", "102502.726000", "102502.682000", "102502.729000", "102502.684000", "102502.731000", "102502.686000", "102502.733000", "102502.687000", "102502.734000", "102502.689000", "102502.736000", "102502.690000"],
      "CsaImage.ICE_Dims": [
        "X_2_1_1_1_1_1_23_1_1_1_1_29",
        "X_2_1_1_1_1_1_1_1_1_2_1_29",
        "X_2_1_1_1_1_1_24_1_1_3_1_29",
        "X_2_1_1_1_1_1_2_1_1_4_1_29",
        "X_2_1_1_1_1_1_25_1_1_5_1_29",
        "X_2_1_1_1_1_1_3_1_1_6_1_29",
        "X_2_1_1_1_1_1_26_1_1_7_1_29",
        "X_2_1_1_1_1_1_4_1_1_8_1_29",
        "X_2_1_1_1_1_1_27_1_1_9_1_29",
        "X_2_1_1_1_1_1_5_1_1_10_1_29",
        "X_2_1_1_1_1_1_28_1_1_11_1_29",
        "X_2_1_1_1_1_1_6_1_1_12_1_29",
        "X_2_1_1_1_1_1_29_1_1_13_1_29",
        "X_2_1_1_1_1_1_7_1_1_14_1_29",
        "X_2_1_1_1_1_1_30_1_1_15_1_29",
        "X_2_1_1_1_1_1_8_1_1_16_1_29",
        "X_2_1_1_1_1_1_31_1_1_17_1_29",
        "X_2_1_1_1_1_1_9_1_1_18_1_29",
        "X_2_1_1_1_1_1_32_1_1_19_1_29",
        "X_2_1_1_1_1_1_10_1_1_20_1_29",
        "X_2_1_1_1_1_1_33_1_1_21_1_29",
        "X_2_1_1_1_1_1_11_1_1_22_1_29",
        "X_2_1_1_1_1_1_34_1_1_23_1_29",
        "X_2_1_1_1_1_1_12_1_1_24_1_29",
        "X_2_1_1_1_1_1_35_1_1_25_1_29",
        "X_2_1_1_1_1_1_13_1_1_26_1_29",
        "X_2_1_1_1_1_1_36_1_1_27_1_29",
        "X_2_1_1_1_1_1_14_1_1_28_1_29",
        "X_2_1_1_1_1_1_37_1_1_29_1_29",
        "X_2_1_1_1_1_1_15_1_1_30_1_29",
        "X_2_1_1_1_1_1_38_1_1_31_1_29",
        "X_2_1_1_1_1_1_16_1_1_32_1_29",
        "X_2_1_1_1_1_1_39_1_1_33_1_29",
        "X_2_1_1_1_1_1_17_1_1_34_1_29",
        "X_2_1_1_1_1_1_40_1_1_35_1_29",
        "X_2_1_1_1_1_1_18_1_1_36_1_29",
        "X_2_1_1_1_1_1_41_1_1_37_1_29",
        "X_2_1_1_1_1_1_19_1_1_38_1_29",
        "X_2_1_1_1_1_1_42_1_1_39_1_29",
        "X_2_1_1_1_1_1_20_1_1_40_1_29",
        "X_2_1_1_1_1_1_43_1_1_41_1_29",
        "X_2_1_1_1_1_1_21_1_1_42_1_29",
        "X_2_1_1_1_1_1_44_1_1_43_1_29",
        "X_2_1_1_1_1_1_22_1_1_44_1_29"
],
      "CsaImage.ProtocolSliceNumber": [0, 1, 2, 3, 4, 5, 6, 7, 8, 9, 10, 11, 12, 13, 14, 15, 16, 17, 18, 19, 20, 21, 22, 23, 24, 25, 26, 27, 28, 29, 30, 31, 32, 33, 34, 35, 36, 37, 38, 39, 40, 41, 42, 43],
      "CsaImage.SliceMeasurementDuration": [61487.5, 61487.5, 61487.5, 61487.5, 61487.5, 61487.5, 61487.5, 61490.0, 61487.5, 61487.5, 61487.5, 61490.0, 61490.0, 61487.5, 61487.5, 61487.5, 61487.5, 61487.5, 61487.5, 61487.5, 61487.5, 61487.5, 61487.5, 61487.5, 61487.5, 61490.0, 61490.0, 61487.5, 61487.5, 61487.5, 61490.0, 61487.5, 61487.5, 61487.5, 61487.5, 61487.5, 61487.5, 61487.5, 61487.5, 61490.0, 61490.0, 61487.5, 61487.5, 61490.0],
      "CsaImage.SlicePosition_PCS": [
        [-96.19515467, -136.16717529, 3.60368371],
        [-96.19515467, -136.16717529, 6.60368395],
        [-96.19515467, -136.16717529, 9.60368347],
        [-96.19515467, -136.16717529, 12.60368347],
        [-96.19515467, -136.16717529, 15.60368347],
        [-96.19515467, -136.16717529, 18.60368347],
        [-96.19515467, -136.16717529, 21.60368347],
        [-96.19515467, -136.16717529, 24.60368347],
        [-96.19515467, -136.16717529, 27.60368347],
        [-96.19515467, -136.16717529, 30.60368347],
        [-96.19515467, -136.16717529, 33.60368347],
        [-96.19515467, -136.16717529, 36.60368347],
        [-96.19515467, -136.16717529, 39.60368347],
        [-96.19515467, -136.16717529, 42.60368347],
        [-96.19515467, -136.16717529, 45.60368347],
        [-96.19515467, -136.16717529, 48.60368347],
        [-96.19515467, -136.16717529, 51.60368347],
        [-96.19515467, -136.16717529, 54.60368347],
        [-96.19515467, -136.16717529, 57.60368347],
        [-96.19515467, -136.16717529, 60.60368347],
        [-96.19515467, -136.16717529, 63.60368347],
        [-96.19515467, -136.16717529, 66.60368347],
        [-96.19515467, -136.16717529, 69.60368347],
        [-96.19515467, -136.16717529, 72.60368347],
        [-96.19515467, -136.16717529, 75.60368347],
        [-96.19515467, -136.16717529, 78.60368347],
        [-96.19515467, -136.16717529, 81.60368347],
        [-96.19515467, -136.16717529, 84.60368347],
        [-96.19515467, -136.16717529, 87.60368347],
        [-96.19515467, -136.16717529, 90.60368347],
        [-96.19515467, -136.16717529, 93.60368347],
        [-96.19515467, -136.16717529, 96.60368347],
        [-96.19515467, -136.16717529, 99.60368347],
        [-96.19515467, -136.16717529, 102.60368347],
        [-96.19515467, -136.16717529, 105.60368347],
        [-96.19515467, -136.16717529, 108.60368347],
        [-96.19515467, -136.16717529, 111.60368347],
        [-96.19515467, -136.16717529, 114.60368347],
        [-96.19515467, -136.16717529, 117.60368347],
        [-96.19515467, -136.16717529, 120.60368347],
        [-96.19515467, -136.16717529, 123.60368347],
        [-96.19515467, -136.16717529, 126.60368347],
        [-96.19515467, -136.16717529, 129.60368347],
        [-96.19515467, -136.16717529, 132.60368347]
],
      "CsaImage.TimeAfterStart": [0.735, 0.49, 0.745, 0.5, 0.755, 0.5125, 0.7675, 0.5225, 0.7775, 0.535, 0.79, 0.545, 0.8, 0.5575, 0.8125, 0.5675, 0.8225, 0.5775, 0.835, 0.59, 0.845, 0.6, 0.855, 0.6125, 0.8675, 0.6225, 0.8775, 0.635, 0.89, 0.645, 0.9, 0.6575, 0.9125, 0.6675, 0.9225, 0.6775, 0.9325, 0.69, 0.945, 0.7, 0.955, 0.7125, 0.9675, 0.7225],
      "ImagePositionPatient": [
        [-96.195154666435, -136.16717529343, 3.6036837100983],
        [-96.195154666435, -136.16717529343, 6.6036839485168],
        [-96.195154666435, -136.16717529343, 9.6036834716797],
        [-96.195154666435, -136.16717529343, 12.60368347168],
        [-96.195154666435, -136.16717529343, 15.60368347168],
        [-96.195154666435, -136.16717529343, 18.60368347168],
        [-96.195154666435, -136.16717529343, 21.60368347168],
        [-96.195154666435, -136.16717529343, 24.60368347168],
        [-96.195154666435, -136.16717529343, 27.60368347168],
        [-96.195154666435, -136.16717529343, 30.60368347168],
        [-96.195154666435, -136.16717529343, 33.60368347168],
        [-96.195154666435, -136.16717529343, 36.60368347168],
        [-96.195154666435, -136.16717529343, 39.60368347168],
        [-96.195154666435, -136.16717529343, 42.60368347168],
        [-96.195154666435, -136.16717529343, 45.60368347168],
        [-96.195154666435, -136.16717529343, 48.60368347168],
        [-96.195154666435, -136.16717529343, 51.60368347168],
        [-96.195154666435, -136.16717529343, 54.60368347168],
        [-96.195154666435, -136.16717529343, 57.60368347168],
        [-96.195154666435, -136.16717529343, 60.60368347168],
        [-96.195154666435, -136.16717529343, 63.60368347168],
        [-96.195154666435, -136.16717529343, 66.60368347168],
        [-96.195154666435, -136.16717529343, 69.60368347168],
        [-96.195154666435, -136.16717529343, 72.60368347168],
        [-96.195154666435, -136.16717529343, 75.60368347168],
        [-96.195154666435, -136.16717529343, 78.60368347168],
        [-96.195154666435, -136.16717529343, 81.60368347168],
        [-96.195154666435, -136.16717529343, 84.60368347168],
        [-96.195154666435, -136.16717529343, 87.60368347168],
        [-96.195154666435, -136.16717529343, 90.60368347168],
        [-96.195154666435, -136.16717529343, 93.60368347168],
        [-96.195154666435, -136.16717529343, 96.60368347168],
        [-96.195154666435, -136.16717529343, 99.60368347168],
        [-96.195154666435, -136.16717529343, 102.60368347168],
        [-96.195154666435, -136.16717529343, 105.60368347168],
        [-96.195154666435, -136.16717529343, 108.60368347168],
        [-96.195154666435, -136.16717529343, 111.60368347168],
        [-96.195154666435, -136.16717529343, 114.60368347168],
        [-96.195154666435, -136.16717529343, 117.60368347168],
        [-96.195154666435, -136.16717529343, 120.60368347168],
        [-96.195154666435, -136.16717529343, 123.60368347168],
        [-96.195154666435, -136.16717529343, 126.60368347168],
        [-96.195154666435, -136.16717529343, 129.60368347168],
        [-96.195154666435, -136.16717529343, 132.60368347168]
],
      "InstanceCreationTime": ["102502.697000", "102502.656000", "102502.699000", "102502.658000", "102502.701000", "102502.660000", "102502.702000", "102502.661000", "102502.704000", "102502.663000", "102502.706000", "102502.665000", "102502.707000", "102502.666000", "102502.709000", "102502.668000", "102502.711000", "102502.670000", "102502.712000", "102502.671000", "102502.714000", "102502.673000", "102502.715000", "102502.674000", "102502.717000", "102502.676000", "102502.719000", "102502.677000", "102502.721000", "102502.679000", "102502.722000", "102502.681000", "102502.726000", "102502.682000", "102502.729000", "102502.684000", "102502.731000", "102502.686000", "102502.733000", "102502.687000", "102502.734000", "102502.689000", "102502.736000", "102502.690000"],
      "InstanceNumber": [1, 2, 3, 4, 5, 6, 7, 8, 9, 10, 11, 12, 13, 14, 15, 16, 17, 18, 19, 20, 21, 22, 23, 24, 25, 26, 27, 28, 29, 30, 31, 32, 33, 34, 35, 36, 37, 38, 39, 40, 41, 42, 43, 44],
      "LargestImagePixelValue": [4090, 4090, 4086, 4093, 4089, 4072, 4090, 4085, 4087, 4055, 4061, 4069, 4085, 4064, 4029, 4074, 4089, 4079, 4072, 4064, 4065, 4072, 4083, 4091, 4074, 4089, 4094, 4065, 4052, 4066, 4084, 4088, 4064, 4093, 4091, 4088, 4094, 4083, 4095, 4094, 4095, 4093, 4095, 4092],
      "SliceLocation": [3.6036837100983, 6.6036839485168, 9.6036834716797, 12.60368347168, 15.60368347168, 18.60368347168, 21.60368347168, 24.60368347168, 27.60368347168, 30.60368347168, 33.60368347168, 36.60368347168, 39.60368347168, 42.60368347168, 45.60368347168, 48.60368347168, 51.60368347168, 54.60368347168, 57.60368347168, 60.60368347168, 63.60368347168, 66.60368347168, 69.60368347168, 72.60368347168, 75.60368347168, 78.60368347168, 81.60368347168, 84.60368347168, 87.60368347168, 90.60368347168, 93.60368347168, 96.60368347168, 99.60368347168, 102.60368347168, 105.60368347168, 108.60368347168, 111.60368347168, 114.60368347168, 117.60368347168, 120.60368347168, 123.60368347168, 126.60368347168, 129.60368347168, 132.60368347168],
      "SmallestImagePixelValue": [6, 5, 9, 37, 9, 5, 5, 5, 3, 23, 36, 2, 2, 40, 39, 65, 25, 5, 17, 34, 9, 63, 14, 25, 72, 2, 4, 29, 19, 4, 4, 2, 0, 0, 4, 1, 7, 0, 0, 0, 0, 1, 3, 0],
      "WindowCenter": [-254.0, -206.0, -244.0, -222.0, -122.0, -138.0, -160.0, -202.0, -180.0, -370.0, -336.0, -176.0, -140.0, -74.0, -74.0, -88.0, -102.0, -66.0, -186.0, -74.0, -30.0, -162.0, -164.0, -178.0, -148.0, -134.0, -148.0, -178.0, -174.0, -174.0, -192.0, -244.0, -302.0, -356.0, -428.0, -468.0, -558.0, -564.0, -580.0, -596.0, -538.0, -522.0, -410.0, -428.0],
      "WindowWidth": [5718.0, 5818.0, 5688.0, 5742.0, 5852.0, 5904.0, 5776.0, 5634.0, 5450.0, 4696.0, 4666.0, 5306.0, 5224.0, 5386.0, 5230.0, 5094.0, 4918.0, 5086.0, 4532.0, 5020.0, 5098.0, 4516.0, 4512.0, 4526.0, 4498.0, 4484.0, 4488.0, 4512.0, 4496.0, 4482.0, 4472.0, 4518.0, 4524.0, 4538.0, 4564.0, 4600.0, 4658.0, 4724.0, 4798.0, 4908.0, 5038.0, 5122.0, 5178.0, 5234.0]
    }
  }
}