{
  "AcquisitionMatrixPE": 64,
  "AcquisitionNumber": 1,
  "AcquisitionTime": "11:20:45.432500",
  "BandwidthPerPixelPhaseEncode": 60.096,
  "BaseResolution": 64,
  "BodyPartExamined": "BRAIN",
  "CoilString": "HEA;HEP",
  "ConsistencyInfo": "N4_VE11P_LATEST_20161021",
  "ConversionSoftware": "dcm2niix",
  "ConversionSoftwareVersion": "v1.0.20190410  GCC6.3.0",
  "DerivedVendorReportedEchoSpacing": 0.000520001,
  "DeviceSerialNumber": "51066",
  "DwellTime": 3.4e-06,
  "EchoTime": 0.03,
  "EchoTrainLength": 31,
  "EffectiveEchoSpacing": 0.000260001,
  "FlipAngle": 90,
  "ImageOrientationPatientDICOM": [0.999983, 0.000647041, 0.00578453, -1.17302e-09, 0.993802, -0.111164],
  "ImageType": [
    "ORIGINAL",
    "PRIMARY",
    "M",
    "ND",
    "NORM",
    "MOSAIC"
],
  "ImagingFrequency": 123.239,
  "InPlanePhaseEncodingDirectionDICOM": "COL",
  "InstitutionAddress": "Blackburn_Road_770_Clayton_Victoria_AU_3168",
  "InstitutionName": "MONASH_BIOMEDICAL_IMAGING",
  "InstitutionalDepartmentName": "Department",
  "MRAcquisitionType": "2D",
  "MagneticFieldStrength": 3,
  "Manufacturer": "Siemens",
  "ManufacturersModelName": "Biograph_mMR",
  "Modality": "MR",
  "ParallelReductionFactorInPlane": 2,
  "PartialFourier": 1,
  "PatientPosition": "HFS",
  "PercentPhaseFOV": 100,
  "PhaseEncodingDirection": "j-",
  "PhaseEncodingSteps": 63,
  "PhaseResolution": 1,
  "PixelBandwidth": 2300,
  "ProcedureStepDescription": "MR-PET_Scan",
  "ProtocolName": "Head_A-P_Full_checker_ep2D_task_bold_32-32",
  "PulseSequenceDetails": "%SiemensSeq%_ep2d_bold",
  "ReceiveCoilActiveElements": "H1U;H2L",
  "ReceiveCoilName": "HeadNeck_MRPET",
  "ReconMatrixPE": 64,
  "RefLinesPE": 24,
  "RepetitionTime": 4,
  "SAR": 0.0819853,
  "ScanOptions": "FS",
  "ScanningSequence": "EP",
  "SequenceName": "_epfid2d1_64",
  "SequenceVariant": "SK",
  "SeriesDescription": "Head_A-P_Full_checker_ep2D_task_bold_32-32",
  "SeriesNumber": 19,
  "ShimSetting": [-8330, -965, -3933, 571, -391, -12, -668, -372],
  "SliceThickness": 3,
  "SliceTiming": [1.99, 0, 2.08, 0.09, 2.17, 0.18, 2.26, 0.27, 2.35, 0.36, 2.4425, 0.4525, 2.5325, 0.5425, 2.6225, 0.6325, 2.7125, 0.7225, 2.8025, 0.8125, 2.8925, 0.905, 2.985, 0.995, 3.075, 1.085, 3.165, 1.175, 3.255, 1.265, 3.345, 1.355, 3.4375, 1.4475, 3.5275, 1.5375, 3.6175, 1.6275, 3.7075, 1.7175, 3.7975, 1.8075, 3.8875, 1.8975],
  "SoftwareVersions": "syngo_MR_E11",
  "SpacingBetweenSlices": 3,
  "StationName": "MRC51066",
  "TaskName": "checkerboard",
  "TotalReadoutTime": 0.01638,
  "TxRefAmp": 292.255,
  "dcmmeta_affine": [
    [-2.9686996936798096, -3.4824121364351868e-09, 0.017461812123656273, 94.82933044433594],
    [-0.0019209033343940973, 2.950350046157837, -0.33348551392555237, -74.92987060546875],
    [0.01717281900346279, 0.3300172686576843, 2.981355905532837, -63.842254638671875],
    [0.0, 0.0, 0.0, 1.0]
],
  "dcmmeta_reorient_transform": [
    [0.0, -1.0, 0.0, 63.0],
    [1.0, 0.0, 0.0, 0.0],
    [0.0, 0.0, 1.0, 0.0],
    [0.0, 0.0, 0.0, 1.0]
],
  "dcmmeta_shape": [64, 64, 44, 1360],
  "dcmmeta_slice_dim": 2,
  "dcmmeta_version": 0.6,
  "global": {
    "const": {
      "AcquisitionMatrix": [64, 0, 0, 64],
      "Allergies": "None",
      "AngioFlag": "N",
      "BitsAllocated": 16,
      "BitsStored": 12,
      "BodyPartExamined": "BRAIN",
      "Columns": 448,
      "EchoNumbers": 1,
      "EchoTime": 30.0,
      "EchoTrainLength": 31,
      "FlipAngle": 90.0,
      "HighBit": 11,
      "ImageOrientationPatient": [0.9999830601417, 0.00064704111096, 0.00578452828193, -1.173023e-09, 0.99380210742587, -0.1111637138454],
      "ImagePositionPatient": [-664.81967149542, -677.77819290175, 17.014971204857],
      "ImageType": [
        "ORIGINAL",
        "PRIMARY",
        "M",
        "ND",
        "NORM",
        "MOSAIC"
],
      "ImagedNucleus": "1H",
      "ImagingFrequency": 123.239257,
      "InPlanePhaseEncodingDirection": "COL",
      "MRAcquisitionType": "2D",
      "MagneticFieldStrength": 3.0,
      "Manufacturer": "SIEMENS",
      "ManufacturerModelName": "Biograph_mMR",
      "MedicalAlerts": "None",
      "Modality": "MR",
      "NumberOfAverages": 1.0,
      "NumberOfPhaseEncodingSteps": 63,
      "PercentPhaseFieldOfView": 100.0,
      "PercentSampling": 100.0,
      "PerformedProcedureStepStartTime": "102529.036000",
      "PhotometricInterpretation": "MONOCHROME2",
      "PixelBandwidth": 2300.0,
      "PixelRepresentation": 0,
      "PixelSpacing": [2.96875, 2.96875],
      "PregnancyStatus": 4,
      "ProtocolName": "Head_A-P Full checker_ep2D_task_bold_32-32",
      "RepetitionTime": 4000.0,
      "RequestAttributesSequence": [
        {
          "RequestedProcedureID": "MMH004",
          "ScheduledProcedureStepDescription": "MR-PET Scan",
          "ScheduledProcedureStepID": "001"}
],
      "Rows": 448,
      "SAR": 0.08198531821062,
      "SamplesPerPixel": 1,
      "ScanOptions": "FS",
      "ScanningSequence": "EP",
      "SequenceName": "*epfid2d1_64",
      "SequenceVariant": "SK",
      "SeriesDescription": "Head_A-P Full checker_ep2D_task_bold_32-32",
      "SeriesNumber": 19,
      "SeriesTime": "112109.670000",
      "SliceLocation": -54.564184996857,
      "SliceThickness": 3.0,
      "SmallestImagePixelValue": 0,
      "SoftwareVersions": "syngo MR E11",
      "SpacingBetweenSlices": 3.0000000671076,
      "SpecificCharacterSet": "ISO_IR 100",
      "StudyID": "MMH004",
      "StudyTime": "102528.899000",
      "TransmitCoilName": "Body",
      "VariableFlipAngleFlag": "N",
      "WindowCenterWidthExplanation": "Algo1",
      "dBdt": 0.0},
    "slices": {}
  },
  "time": {
    "samples": {
      "AcquisitionNumber": [1, 2, 3, 4, 5, 6, 7, 8, 9, 10, 11, 12, 13, 14, 15, 16, 17, 18, 19, 20, 21, 22, 23, 24, 25, 26, 27, 28, 29, 30, 31, 32, 33, 34, 35, 36, 37, 38, 39, 40, 41, 42, 43, 44, 45, 46, 47, 48, 49, 50, 51, 52, 53, 54, 55, 56, 57, 58, 59, 60, 61, 62, 63, 64, 65, 66, 67, 68, 69, 70, 71, 72, 73, 74, 75, 76, 77, 78, 79, 80, 81, 82, 83, 84, 85, 86, 87, 88, 89, 90, 91, 92, 93, 94, 95, 96, 97, 98, 99, 100, 101, 102, 103, 104, 105, 106, 107, 108, 109, 110, 111, 112, 113, 114, 115, 116, 117, 118, 119, 120, 121, 122, 123, 124, 125, 126, 127, 128, 129, 130, 131, 132, 133, 134, 135, 136, 137, 138, 139, 140, 141, 142, 143, 144, 145, 146, 147, 148, 149, 150, 151, 152, 153, 154, 155, 156, 157, 158, 159, 160, 161, 162, 163, 164, 165, 166, 167, 168, 169, 170, 171, 172, 173, 174, 175, 176, 177, 178, 179, 180, 181, 182, 183, 184, 185, 186, 187, 188, 189, 190, 191, 192, 193, 194, 195, 196, 197, 198, 199, 200, 201, 202, 203, 204, 205, 206, 207, 208, 209, 210, 211, 212, 213, 214, 215, 216, 217, 218, 219, 220, 221, 222, 223, 224, 225, 226, 227, 228, 229, 230, 231, 232, 233, 234, 235, 236, 237, 238, 239, 240, 241, 242, 243, 244, 245, 246, 247, 248, 249, 250, 251, 252, 253, 254, 255, 256, 257, 258, 259, 260, 261, 262, 263, 264, 265, 266, 267, 268, 269, 270, 271, 272, 273, 274, 275, 276, 277, 278, 279, 280, 281, 282, 283, 284, 285, 286, 287, 288, 289, 290, 291, 292, 293, 294, 295, 296, 297, 298, 299, 300, 301, 302, 303, 304, 305, 306, 307, 308, 309, 310, 311, 312, 313, 314, 315, 316, 317, 318, 319, 320, 321, 322, 323, 324, 325, 326, 327, 328, 329, 330, 331, 332, 333, 334, 335, 336, 337, 338, 339, 340, 341, 342, 343, 344, 345, 346, 347, 348, 349, 350, 351, 352, 353, 354, 355, 356, 357, 358, 359, 360, 361, 362, 363, 364, 365, 366, 367, 368, 369, 370, 371, 372, 373, 374, 375, 376, 377, 378, 379, 380, 381, 382, 383, 384, 385, 386, 387, 388, 389, 390, 391, 392, 393, 394, 395, 396, 397, 398, 399, 400, 401, 402, 403, 404, 405, 406, 407, 408, 409, 410, 411, 412, 413, 414, 415, 416, 417, 418, 419, 420, 421, 422, 423, 424, 425, 426, 427, 428, 429, 430, 431, 432, 433, 434, 435, 436, 437, 438, 439, 440, 441, 442, 443, 444, 445, 446, 447, 448, 449, 450, 451, 452, 453, 454, 455, 456, 457, 458, 459, 460, 461, 462, 463, 464, 465, 466, 467, 468, 469, 470, 471, 472, 473, 474, 475, 476, 477, 478, 479, 480, 481, 482, 483, 484, 485, 486, 487, 488, 489, 490, 491, 492, 493, 494, 495, 496, 497, 498, 499, 500, 501, 502, 503, 504, 505, 506, 507, 508, 509, 510, 511, 512, 513, 514, 515, 516, 517, 518, 519, 520, 521, 522, 523, 524, 525, 526, 527, 528, 529, 530, 531, 532, 533, 534, 535, 536, 537, 538, 539, 540, 541, 542, 543, 544, 545, 546, 547, 548, 549, 550, 551, 552, 553, 554, 555, 556, 557, 558, 559, 560, 561, 562, 563, 564, 565, 566, 567, 568, 569, 570, 571, 572, 573, 574, 575, 576, 577, 578, 579, 580, 581, 582, 583, 584, 585, 586, 587, 588, 589, 590, 591, 592, 593, 594, 595, 596, 597, 598, 599, 600, 601, 602, 603, 604, 605, 606, 607, 608, 609, 610, 611, 612, 613, 614, 615, 616, 617, 618, 619, 620, 621, 622, 623, 624, 625, 626, 627, 628, 629, 630, 631, 632, 633, 634, 635, 636, 637, 638, 639, 640, 641, 642, 643, 644, 645, 646, 647, 648, 649, 650, 651, 652, 653, 654, 655, 656, 657, 658, 659, 660, 661, 662, 663, 664, 665, 666, 667, 668, 669, 670, 671, 672, 673, 674, 675, 676, 677, 678, 679, 680, 681, 682, 683, 684, 685, 686, 687, 688, 689, 690, 691, 692, 693, 694, 695, 696, 697, 698, 699, 700, 701, 702, 703, 704, 705, 706, 707, 708, 709, 710, 711, 712, 713, 714, 715, 716, 717, 718, 719, 720, 721, 722, 723, 724, 725, 726, 727, 728, 729, 730, 731, 732, 733, 734, 735, 736, 737, 738, 739, 740, 741, 742, 743, 744, 745, 746, 747, 748, 749, 750, 751, 752, 753, 754, 755, 756, 757, 758, 759, 760, 761, 762, 763, 764, 765, 766, 767, 768, 769, 770, 771, 772, 773, 774, 775, 776, 777, 778, 779, 780, 781, 782, 783, 784, 785, 786, 787, 788, 789, 790, 791, 792, 793, 794, 795, 796, 797, 798, 799, 800, 801, 802, 803, 804, 805, 806, 807, 808, 809, 810, 811, 812, 813, 814, 815, 816, 817, 818, 819, 820, 821, 822, 823, 824, 825, 826, 827, 828, 829, 830, 831, 832, 833, 834, 835, 836, 837, 838, 839, 840, 841, 842, 843, 844, 845, 846, 847, 848, 849, 850, 851, 852, 853, 854, 855, 856, 857, 858, 859, 860, 861, 862, 863, 864, 865, 866, 867, 868, 869, 870, 871, 872, 873, 874, 875, 876, 877, 878, 879, 880, 881, 882, 883, 884, 885, 886, 887, 888, 889, 890, 891, 892, 893, 894, 895, 896, 897, 898, 899, 900, 901, 902, 903, 904, 905, 906, 907, 908, 909, 910, 911, 912, 913, 914, 915, 916, 917, 918, 919, 920, 921, 922, 923, 924, 925, 926, 927, 928, 929, 930, 931, 932, 933, 934, 935, 936, 937, 938, 939, 940, 941, 942, 943, 944, 945, 946, 947, 948, 949, 950, 951, 952, 953, 954, 955, 956, 957, 958, 959, 960, 961, 962, 963, 964, 965, 966, 967, 968, 969, 970, 971, 972, 973, 974, 975, 976, 977, 978, 979, 980, 981, 982, 983, 984, 985, 986, 987, 988, 989, 990, 991, 992, 993, 994, 995, 996, 997, 998, 999, 1000, 1001, 1002, 1003, 1004, 1005, 1006, 1007, 1008, 1009, 1010, 1011, 1012, 1013, 1014, 1015, 1016, 1017, 1018, 1019, 1020, 1021, 1022, 1023, 1024, 1025, 1026, 1027, 1028, 1029, 1030, 1031, 1032, 1033, 1034, 1035, 1036, 1037, 1038, 1039, 1040, 1041, 1042, 1043, 1044, 1045, 1046, 1047, 1048, 1049, 1050, 1051, 1052, 1053, 1054, 1055, 1056, 1057, 1058, 1059, 1060, 1061, 1062, 1063, 1064, 1065, 1066, 1067, 1068, 1069, 1070, 1071, 1072, 1073, 1074, 1075, 1076, 1077, 1078, 1079, 1080, 1081, 1082, 1083, 1084, 1085, 1086, 1087, 1088, 1089, 1090, 1091, 1092, 1093, 1094, 1095, 1096, 1097, 1098, 1099, 1100, 1101, 1102, 1103, 1104, 1105, 1106, 1107, 1108, 1109, 1110, 1111, 1112, 1113, 1114, 1115, 1116, 1117, 1118, 1119, 1120, 1121, 1122, 1123, 1124, 1125, 1126, 1127, 1128, 1129, 1130, 1131, 1132, 1133, 1134, 1135, 1136, 1137, 1138, 1139, 1140, 1141, 1142, 1143, 1144, 1145, 1146, 1147, 1148, 1149, 1150, 1151, 1152, 1153, 1154, 1155, 1156, 1157, 1158, 1159, 1160, 1161, 1162, 1163, 1164, 1165, 1166, 1167, 1168, 1169, 1170, 1171, 1172, 1173, 1174, 1175, 1176, 1177, 1178, 1179, 1180, 1181, 1182, 1183, 1184, 1185, 1186, 1187, 1188, 1189, 1190, 1191, 1192, 1193, 1194, 1195, 1196, 1197, 1198, 1199, 1200, 1201, 1202, 1203, 1204, 1205, 1206, 1207, 1208, 1209, 1210, 1211, 1212, 1213, 1214, 1215, 1216, 1217, 1218, 1219, 1220, 1221, 1222, 1223, 1224, 1225, 1226, 1227, 1228, 1229, 1230, 1231, 1232, 1233, 1234, 1235, 1236, 1237, 1238, 1239, 1240, 1241, 1242, 1243, 1244, 1245, 1246, 1247, 1248, 1249, 1250, 1251, 1252, 1253, 1254, 1255, 1256, 1257, 1258, 1259, 1260, 1261, 1262, 1263, 1264, 1265, 1266, 1267, 1268, 1269, 1270, 1271, 1272, 1273, 1274, 1275, 1276, 1277, 1278, 1279, 1280, 1281, 1282, 1283, 1284, 1285, 1286, 1287, 1288, 1289, 1290, 1291, 1292, 1293, 1294, 1295, 1296, 1297, 1298, 1299, 1300, 1301, 1302, 1303, 1304, 1305, 1306, 1307, 1308, 1309, 1310, 1311, 1312, 1313, 1314, 1315, 1316, 1317, 1318, 1319, 1320, 1321, 1322, 1323, 1324, 1325, 1326, 1327, 1328, 1329, 1330, 1331, 1332, 1333, 1334, 1335, 1336, 1337, 1338, 1339, 1340, 1341, 1342, 1343, 1344, 1345, 1346, 1347, 1348, 1349, 1350, 1351, 1352, 1353, 1354, 1355, 1356, 1357, 1358, 1359, 1360],
      "AcquisitionTime": ["112045.432500", "112049.432500", "112053.432500", "112057.432500", "112101.432500", "112105.432500", "112109.432500", "112113.432500", "112117.432500", "112121.432500", "112125.432500", "112129.432500", "112133.432500", "112137.432500", "112141.432500", "112145.432500", "112149.432500", "112153.432500", "112157.432500", "112201.432500", "112205.432500", "112209.432500", "112213.432500", "112217.432500", "112221.432500", "112225.432500", "112229.432500", "112233.432500", "112237.432500", "112241.432500", "112245.432500", "112249.432500", "112253.432500", "112257.432500", "112301.432500", "112305.432500", "112309.432500", "112313.432500", "112317.432500", "112321.432500", "112325.432500", "112329.432500", "112333.432500", "112337.432500", "112341.432500", "112345.432500", "112349.432500", "112353.432500", "112357.432500", "112401.432500", "112405.432500", "112409.432500", "112413.432500", "112417.432500", "112421.432500", "112425.432500", "112429.432500", "112433.432500", "112437.432500", "112441.432500", "112445.432500", "112449.432500", "112453.432500", "112457.432500", "112501.432500", "112505.432500", "112509.432500", "112513.432500", "112517.432500", "112521.432500", "112525.432500", "112529.432500", "112533.432500", "112537.432500", "112541.432500", "112545.432500", "112549.432500", "112553.432500", "112557.432500", "112601.432500", "112605.432500", "112609.432500", "112613.432500", "112617.432500", "112621.432500", "112625.432500", "112629.432500", "112633.432500", "112637.432500", "112641.432500", "112645.432500", "112649.432500", "112653.432500", "112657.432500", "112701.432500", "112705.432500", "112709.432500", "112713.432500", "112717.432500", "112721.432500", "112725.432500", "112729.432500", "112733.432500", "112737.432500", "112741.432500", "112745.432500", "112749.432500", "112753.432500", "112757.432500", "112801.432500", "112805.432500", "112809.432500", "112813.432500", "112817.432500", "112821.432500", "112825.432500", "112829.432500", "112833.432500", "112837.432500", "112841.432500", "112845.432500", "112849.432500", "112853.432500", "112857.432500", "112901.432500", "112905.432500", "112909.432500", "112913.432500", "112917.432500", "112921.432500", "112925.432500", "112929.432500", "112933.432500", "112937.432500", "112941.432500", "112945.432500", "112949.432500", "112953.432500", "112957.432500", "113001.432500", "113005.432500", "113009.432500", "113013.432500", "113017.432500", "113021.432500", "113025.432500", "113029.432500", "113033.432500", "113037.432500", "113041.432500", "113045.432500", "113049.432500", "113053.432500", "113057.432500", "113101.432500", "113105.432500", "113109.432500", "113113.432500", "113117.432500", "113121.432500", "113125.432500", "113129.432500", "113133.432500", "113137.432500", "113141.432500", "113145.432500", "113149.432500", "113153.432500", "113157.432500", "113201.432500", "113205.432500", "113209.432500", "113213.432500", "113217.432500", "113221.432500", "113225.432500", "113229.432500", "113233.432500", "113237.432500", "113241.432500", "113245.432500", "113249.432500", "113253.432500", "113257.432500", "113301.432500", "113305.432500", "113309.432500", "113313.432500", "113317.432500", "113321.432500", "113325.432500", "113329.432500", "113333.432500", "113337.432500", "113341.432500", "113345.432500", "113349.432500", "113353.432500", "113357.432500", "113401.432500", "113405.432500", "113409.432500", "113413.432500", "113417.432500", "113421.432500", "113425.432500", "113429.432500", "113433.432500", "113437.432500", "113441.432500", "113445.432500", "113449.432500", "113453.432500", "113457.432500", "113501.432500", "113505.432500", "113509.432500", "113513.432500", "113517.432500", "113521.432500", "113525.432500", "113529.432500", "113533.432500", "113537.432500", "113541.432500", "113545.432500", "113549.432500", "113553.432500", "113557.432500", "113601.432500", "113605.432500", "113609.432500", "113613.432500", "113617.432500", "113621.432500", "113625.432500", "113629.432500", "113633.432500", "113637.432500", "113641.432500", "113645.432500", "113649.432500", "113653.432500", "113657.432500", "113701.432500", "113705.432500", "113709.432500", "113713.432500", "113717.432500", "113721.432500", "113725.432500", "113729.432500", "113733.432500", "113737.432500", "113741.432500", "113745.432500", "113749.432500", "113753.432500", "113757.432500", "113801.432500", "113805.432500", "113809.432500", "113813.432500", "113817.432500", "113821.432500", "113825.432500", "113829.432500", "113833.432500", "113837.432500", "113841.432500", "113845.432500", "113849.432500", "113853.432500", "113857.432500", "113901.432500", "113905.432500", "113909.432500", "113913.432500", "113917.432500", "113921.432500", "113925.432500", "113929.432500", "113933.432500", "113937.432500", "113941.432500", "113945.432500", "113949.432500", "113953.432500", "113957.432500", "114001.432500", "114005.432500", "114009.432500", "114013.432500", "114017.432500", "114021.432500", "114025.432500", "114029.432500", "114033.432500", "114037.432500", "114041.432500", "114045.432500", "114049.432500", "114053.432500", "114057.432500", "114101.432500", "114105.432500", "114109.432500", "114113.432500", "114117.432500", "114121.432500", "114125.432500", "114129.432500", "114133.432500", "114137.432500", "114141.432500", "114145.432500", "114149.432500", "114153.432500", "114157.432500", "114201.432500", "114205.432500", "114209.432500", "114213.432500", "114217.432500", "114221.432500", "114225.432500", "114229.432500", "114233.432500", "114237.432500", "114241.432500", "114245.432500", "114249.432500", "114253.432500", "114257.432500", "114301.432500", "114305.432500", "114309.432500", "114313.432500", "114317.432500", "114321.432500", "114325.432500", "114329.432500", "114333.432500", "114337.432500", "114341.432500", "114345.432500", "114349.432500", "114353.432500", "114357.432500", "114401.432500", "114405.432500", "114409.432500", "114413.432500", "114417.432500", "114421.432500", "114425.432500", "114429.432500", "114433.432500", "114437.432500", "114441.432500", "114445.432500", "114449.432500", "114453.432500", "114457.432500", "114501.432500", "114505.432500", "114509.432500", "114513.432500", "114517.432500", "114521.432500", "114525.432500", "114529.432500", "114533.432500", "114537.432500", "114541.432500", "114545.432500", "114549.432500", "114553.432500", "114557.432500", "114601.432500", "114605.432500", "114609.432500", "114613.432500", "114617.432500", "114621.432500", "114625.432500", "114629.432500", "114633.432500", "114637.432500", "114641.432500", "114645.432500", "114649.432500", "114653.432500", "114657.432500", "114701.432500", "114705.432500", "114709.432500", "114713.432500", "114717.432500", "114721.432500", "114725.432500", "114729.432500", "114733.432500", "114737.432500", "114741.432500", "114745.432500", "114749.432500", "114753.432500", "114757.432500", "114801.432500", "114805.432500", "114809.432500", "114813.432500", "114817.432500", "114821.432500", "114825.432500", "114829.432500", "114833.432500", "114837.432500", "114841.432500", "114845.432500", "114849.432500", "114853.432500", "114857.432500", "114901.432500", "114905.432500", "114909.432500", "114913.432500", "114917.432500", "114921.432500", "114925.432500", "114929.432500", "114933.432500", "114937.432500", "114941.432500", "114945.432500", "114949.432500", "114953.432500", "114957.432500", "115001.432500", "115005.432500", "115009.432500", "115013.432500", "115017.432500", "115021.432500", "115025.432500", "115029.432500", "115033.432500", "115037.432500", "115041.432500", "115045.432500", "115049.432500", "115053.432500", "115057.432500", "115101.432500", "115105.432500", "115109.432500", "115113.432500", "115117.432500", "115121.432500", "115125.432500", "115129.432500", "115133.432500", "115137.432500", "115141.432500", "115145.432500", "115149.432500", "115153.432500", "115157.432500", "115201.432500", "115205.432500", "115209.432500", "115213.432500", "115217.432500", "115221.432500", "115225.432500", "115229.432500", "115233.432500", "115237.432500", "115241.432500", "115245.432500", "115249.432500", "115253.432500", "115257.432500", "115301.432500", "115305.432500", "115309.432500", "115313.432500", "115317.432500", "115321.432500", "115325.432500", "115329.432500", "115333.432500", "115337.432500", "115341.432500", "115345.432500", "115349.432500", "115353.432500", "115357.432500", "115401.432500", "115405.432500", "115409.432500", "115413.432500", "115417.432500", "115421.432500", "115425.432500", "115429.432500", "115433.432500", "115437.432500", "115441.432500", "115445.432500", "115449.432500", "115453.432500", "115457.432500", "115501.432500", "115505.432500", "115509.432500", "115513.432500", "115517.432500", "115521.432500", "115525.432500", "115529.432500", "115533.432500", "115537.432500", "115541.432500", "115545.432500", "115549.432500", "115553.432500", "115557.432500", "115601.432500", "115605.432500", "115609.432500", "115613.432500", "115617.432500", "115621.432500", "115625.432500", "115629.432500", "115633.432500", "115637.432500", "115641.432500", "115645.432500", "115649.432500", "115653.432500", "115657.432500", "115701.432500", "115705.432500", "115709.432500", "115713.432500", "115717.432500", "115721.432500", "115725.432500", "115729.432500", "115733.432500", "115737.432500", "115741.432500", "115745.432500", "115749.432500", "115753.432500", "115757.432500", "115801.432500", "115805.432500", "115809.432500", "115813.432500", "115817.432500", "115821.432500", "115825.432500", "115829.432500", "115833.432500", "115837.432500", "115841.432500", "115845.432500", "115849.432500", "115853.432500", "115857.432500", "115901.432500", "115905.432500", "115909.432500", "115913.432500", "115917.432500", "115921.432500", "115925.432500", "115929.432500", "115933.432500", "115937.432500", "115941.432500", "115945.432500", "115949.432500", "115953.432500", "115957.432500", "120001.432500", "120005.432500", "120009.432500", "120013.432500", "120017.432500", "120021.432500", "120025.432500", "120029.432500", "120033.432500", "120037.432500", "120041.432500", "120045.432500", "120049.432500", "120053.432500", "120057.432500", "120101.432500", "120105.432500", "120109.432500", "120113.432500", "120117.432500", "120121.432500", "120125.432500", "120129.432500", "120133.432500", "120137.432500", "120141.432500", "120145.432500", "120149.432500", "120153.432500", "120157.432500", "120201.432500", "120205.432500", "120209.432500", "120213.432500", "120217.432500", "120221.432500", "120225.432500", "120229.432500", "120233.432500", "120237.432500", "120241.432500", "120245.432500", "120249.432500", "120253.432500", "120257.432500", "120301.432500", "120305.432500", "120309.432500", "120313.432500", "120317.432500", "120321.432500", "120325.432500", "120329.432500", "120333.432500", "120337.432500", "120341.432500", "120345.432500", "120349.432500", "120353.432500", "120357.432500", "120401.432500", "120405.432500", "120409.432500", "120413.432500", "120417.432500", "120421.432500", "120425.432500", "120429.432500", "120433.432500", "120437.432500", "120441.432500", "120445.432500", "120449.432500", "120453.432500", "120457.432500", "120501.432500", "120505.432500", "120509.432500", "120513.432500", "120517.432500", "120521.432500", "120525.432500", "120529.432500", "120533.432500", "120537.432500", "120541.432500", "120545.432500", "120549.432500", "120553.432500", "120557.432500", "120601.432500", "120605.432500", "120609.432500", "120613.432500", "120617.432500", "120621.432500", "120625.432500", "120629.432500", "120633.432500", "120637.432500", "120641.432500", "120645.432500", "120649.432500", "120653.432500", "120657.432500", "120701.432500", "120705.432500", "120709.432500", "120713.432500", "120717.432500", "120721.432500", "120725.432500", "120729.432500", "120733.432500", "120737.432500", "120741.432500", "120745.432500", "120749.432500", "120753.432500", "120757.432500", "120801.432500", "120805.432500", "120809.432500", "120813.432500", "120817.432500", "120821.432500", "120825.432500", "120829.432500", "120833.432500", "120837.432500", "120841.432500", "120845.432500", "120849.432500", "120853.432500", "120857.432500", "120901.432500", "120905.432500", "120909.432500", "120913.432500", "120917.432500", "120921.432500", "120925.432500", "120929.432500", "120933.432500", "120937.432500", "120941.432500", "120945.432500", "120949.432500", "120953.432500", "120957.432500", "121001.432500", "121005.432500", "121009.432500", "121013.432500", "121017.432500", "121021.432500", "121025.432500", "121029.432500", "121033.432500", "121037.432500", "121041.432500", "121045.432500", "121049.432500", "121053.432500", "121057.432500", "121101.432500", "121105.432500", "121109.432500", "121113.432500", "121117.432500", "121121.432500", "121125.432500", "121129.432500", "121133.432500", "121137.432500", "121141.432500", "121145.432500", "121149.432500", "121153.432500", "121157.432500", "121201.432500", "121205.432500", "121209.432500", "121213.432500", "121217.432500", "121221.432500", "121225.432500", "121229.432500", "121233.432500", "121237.432500", "121241.432500", "121245.432500", "121249.432500", "121253.432500", "121257.432500", "121301.432500", "121305.432500", "121309.432500", "121313.432500", "121317.432500", "121321.432500", "121325.432500", "121329.432500", "121333.432500", "121337.432500", "121341.432500", "121345.432500", "121349.432500", "121353.432500", "121357.432500", "121401.432500", "121405.432500", "121409.432500", "121413.432500", "121417.432500", "121421.432500", "121425.432500", "121429.432500", "121433.432500", "121437.432500", "121441.432500", "121445.432500", "121449.432500", "121453.432500", "121457.432500", "121501.432500", "121505.432500", "121509.432500", "121513.432500", "121517.432500", "121521.432500", "121525.432500", "121529.432500", "121533.432500", "121537.432500", "121541.432500", "121545.432500", "121549.432500", "121553.432500", "121557.432500", "121601.432500", "121605.432500", "121609.432500", "121613.432500", "121617.432500", "121621.432500", "121625.432500", "121629.432500", "121633.432500", "121637.432500", "121641.432500", "121645.432500", "121649.432500", "121653.432500", "121657.432500", "121701.432500", "121705.432500", "121709.432500", "121713.432500", "121717.432500", "121721.432500", "121725.432500", "121729.432500", "121733.432500", "121737.432500", "121741.432500", "121745.432500", "121749.432500", "121753.432500", "121757.432500", "121801.432500", "121805.432500", "121809.432500", "121813.432500", "121817.432500", "121821.432500", "121825.432500", "121829.432500", "121833.432500", "121837.432500", "121841.432500", "121845.432500", "121849.432500", "121853.432500", "121857.432500", "121901.432500", "121905.432500", "121909.432500", "121913.432500", "121917.432500", "121921.432500", "121925.432500", "121929.432500", "121933.432500", "121937.432500", "121941.432500", "121945.432500", "121949.432500", "121953.432500", "121957.432500", "122001.432500", "122005.432500", "122009.432500", "122013.432500", "122017.432500", "122021.432500", "122025.432500", "122029.432500", "122033.432500", "122037.432500", "122041.432500", "122045.432500", "122049.432500", "122053.432500", "122057.432500", "122101.432500", "122105.432500", "122109.432500", "122113.432500", "122117.432500", "122121.432500", "122125.432500", "122129.432500", "122133.432500", "122137.432500", "122141.432500", "122145.432500", "122149.432500", "122153.432500", "122157.432500", "122201.432500", "122205.432500", "122209.432500", "122213.432500", "122217.432500", "122221.432500", "122225.432500", "122229.432500", "122233.432500", "122237.432500", "122241.432500", "122245.432500", "122249.432500", "122253.432500", "122257.432500", "122301.432500", "122305.432500", "122309.432500", "122313.432500", "122317.432500", "122321.432500", "122325.432500", "122329.432500", "122333.432500", "122337.432500", "122341.432500", "122345.432500", "122349.432500", "122353.432500", "122357.432500", "122401.432500", "122405.432500", "122409.432500", "122413.432500", "122417.432500", "122421.432500", "122425.432500", "122429.432500", "122433.432500", "122437.432500", "122441.432500", "122445.432500", "122449.432500", "122453.432500", "122457.432500", "122501.432500", "122505.432500", "122509.432500", "122513.432500", "122517.432500", "122521.432500", "122525.432500", "122529.432500", "122533.432500", "122537.432500", "122541.432500", "122545.432500", "122549.432500", "122553.432500", "122557.432500", "122601.432500", "122605.432500", "122609.432500", "122613.432500", "122617.432500", "122621.432500", "122625.432500", "122629.432500", "122633.432500", "122637.432500", "122641.432500", "122645.432500", "122649.432500", "122653.432500", "122657.432500", "122701.432500", "122705.432500", "122709.432500", "122713.432500", "122717.432500", "122721.432500", "122725.432500", "122729.432500", "122733.432500", "122737.432500", "122741.432500", "122745.432500", "122749.432500", "122753.432500", "122757.432500", "122801.432500", "122805.432500", "122809.432500", "122813.432500", "122817.432500", "122821.432500", "122825