{
  "AcquisitionMatrixPE": 64,
  "AcquisitionNumber": 1,
  "AcquisitionTime": "10:39:33.217500",
  "BandwidthPerPixelPhaseEncode": 60.096,
  "BaseResolution": 64,
  "BodyPartExamined": "BRAIN",
  "CoilString": "HEA;HEP",
  "ConsistencyInfo": "N4_VE11P_LATEST_20161021",
  "ConversionSoftware": "dcm2niix",
  "ConversionSoftwareVersion": "v1.0.20190410  GCC6.3.0",
  "DerivedVendorReportedEchoSpacing": 0.000520001,
  "DeviceSerialNumber": "51066",
  "DwellTime": 3.4e-06,
  "EchoTime": 0.03,
  "EchoTrainLength": 31,
  "EffectiveEchoSpacing": 0.000260001,
  "FlipAngle": 90,
  "ImageOrientationPatientDICOM": [0.998576, 0.0071161, 0.0528717, -0.0104575, 0.997947, 0.0631929],
  "ImageType": [
    "ORIGINAL",
    "PRIMARY",
    "M",
    "ND",
    "NORM",
    "MOSAIC"
],
  "ImagingFrequency": 123.239,
  "InPlanePhaseEncodingDirectionDICOM": "COL",
  "InstitutionAddress": "Blackburn_Road_770_Clayton_Victoria_AU_3168",
  "InstitutionName": "Monash_Biomedical_Imaging",
  "InstitutionalDepartmentName": "Department",
  "MRAcquisitionType": "2D",
  "MagneticFieldStrength": 3,
  "Manufacturer": "Siemens",
  "ManufacturersModelName": "Biograph_mMR",
  "Modality": "MR",
  "ParallelReductionFactorInPlane": 2,
  "PartialFourier": 1,
  "PatientPosition": "HFS",
  "PercentPhaseFOV": 100,
  "PhaseEncodingDirection": "j-",
  "PhaseEncodingSteps": 63,
  "PhaseResolution": 1,
  "PixelBandwidth": 2300,
  "ProcedureStepDescription": "MR-PET_Scan",
  "ProtocolName": "Head_A-P_Full_checker_ep2D_task_bold_32-32",
  "PulseSequenceDetails": "%SiemensSeq%_ep2d_bold",
  "ReceiveCoilActiveElements": "H1U;H2L",
  "ReceiveCoilName": "HeadNeck_MRPET",
  "ReconMatrixPE": 64,
  "RefLinesPE": 24,
  "RepetitionTime": 4,
  "SAR": 0.0951553,
  "ScanOptions": "FS",
  "ScanningSequence": "EP",
  "SequenceName": "_epfid2d1_64",
  "SequenceVariant": "SK",
  "SeriesDescription": "Head_A-P_Full_checker_ep2D_task_bold_32-32",
  "SeriesNumber": 18,
  "ShimSetting": [-8343, -1048, -3796, 441, -519, 103, -323, -199],
  "SliceThickness": 3,
  "SliceTiming": [1.99, 0, 2.08, 0.09, 2.1725, 0.1825, 2.2625, 0.2725, 2.3525, 0.3625, 2.4425, 0.4525, 2.5325, 0.5425, 2.6225, 0.635, 2.715, 0.725, 2.805, 0.815, 2.895, 0.905, 2.985, 0.995, 3.075, 1.085, 3.1675, 1.1775, 3.2575, 1.2675, 3.3475, 1.3575, 3.4375, 1.4475, 3.5275, 1.5375, 3.6175, 1.6275, 3.71, 1.72, 3.8, 1.81, 3.89, 1.9],
  "SoftwareVersions": "syngo_MR_E11",
  "SpacingBetweenSlices": 3,
  "StationName": "MRC51066",
  "TaskName": "checkerboard",
  "TotalReadoutTime": 0.01638,
  "TxRefAmp": 325.887,
  "dcmmeta_affine": [
    [-2.964522361755371, -0.031045686453580856, 0.1569402515888214, 93.47923278808594],
    [-0.021125923842191696, 2.962653875350952, 0.19096747040748596, -80.41844177246094],
    [0.1569627821445465, -0.1876039355993271, 2.9897994995117188, -25.7164249420166],
    [0.0, 0.0, 0.0, 1.0]
],
  "dcmmeta_reorient_transform": [
    [0.0, -1.0, 0.0, 63.0],
    [1.0, 0.0, 0.0, 0.0],
    [0.0, 0.0, 1.0, 0.0],
    [0.0, 0.0, 0.0, 1.0]
],
  "dcmmeta_shape": [64, 64, 44, 1360],
  "dcmmeta_slice_dim": 2,
  "dcmmeta_version": 0.6,
  "global": {
    "const": {
      "AcquisitionMatrix": [64, 0, 0, 64],
      "Allergies": "None",
      "AngioFlag": "N",
      "BitsAllocated": 16,
      "BitsStored": 12,
      "BodyPartExamined": "BRAIN",
      "Columns": 448,
      "EchoNumbers": 1,
      "EchoTime": 30.0,
      "EchoTrainLength": 31,
      "FlipAngle": 90.0,
      "HighBit": 11,
      "ImageOrientationPatient": [0.99857595968752, 0.00711610048256, 0.0528716733995, -0.0104574944741, 0.99794654032894, 0.06319290668121],
      "ImagePositionPatient": [-654.75087969154, -679.11445124463, -103.69228413258],
      "ImageType": [
        "ORIGINAL",
        "PRIMARY",
        "M",
        "ND",
        "NORM",
        "MOSAIC"
],
      "ImagedNucleus": "1H",
      "ImagingFrequency": 123.23921,
      "InPlanePhaseEncodingDirection": "COL",
      "MRAcquisitionType": "2D",
      "MagneticFieldStrength": 3.0,
      "Manufacturer": "SIEMENS",
      "ManufacturerModelName": "Biograph_mMR",
      "MedicalAlerts": "None",
      "Modality": "MR",
      "NumberOfAverages": 1.0,
      "NumberOfPhaseEncodingSteps": 63,
      "PercentPhaseFieldOfView": 100.0,
      "PercentSampling": 100.0,
      "PerformedProcedureStepStartTime": "100438.079000",
      "PhotometricInterpretation": "MONOCHROME2",
      "PixelBandwidth": 2300.0,
      "PixelRepresentation": 0,
      "PixelSpacing": [2.96875, 2.96875],
      "PregnancyStatus": 4,
      "ProtocolName": "Head_A-P Full checker_ep2D_task_bold_32-32",
      "RepetitionTime": 4000.0,
      "RequestAttributesSequence": [
        {
          "RequestedProcedureID": "MMH004",
          "ScheduledProcedureStepDescription": "MR-PET Scan",
          "ScheduledProcedureStepID": "001"}
],
      "Rows": 448,
      "SAR": 0.0951552762185,
      "SamplesPerPixel": 1,
      "ScanOptions": "FS",
      "ScanningSequence": "EP",
      "SequenceName": "*epfid2d1_64",
      "SequenceVariant": "SK",
      "SeriesDescription": "Head_A-P Full checker_ep2D_task_bold_32-32",
      "SeriesNumber": 18,
      "SeriesTime": "103950.650000",
      "SliceLocation": -25.857869322623,
      "SliceThickness": 3.0,
      "SmallestImagePixelValue": 0,
      "SoftwareVersions": "syngo MR E11",
      "SpacingBetweenSlices": 2.9999999776593,
      "SpecificCharacterSet": "ISO_IR 100",
      "StudyID": "MMH004",
      "StudyTime": "100437.934000",
      "TransmitCoilName": "Body",
      "VariableFlipAngleFlag": "N",
      "WindowCenterWidthExplanation": "Algo1",
      "dBdt": 0.0},
    "slices": {}
  },
  "time": {
    "samples": {
      "AcquisitionNumber": [1, 2, 3, 4, 5, 6, 7, 8, 9, 10, 11, 12, 13, 14, 15, 16, 17, 18, 19, 20, 21, 22, 23, 24, 25, 26, 27, 28, 29, 30, 31, 32, 33, 34, 35, 36, 37, 38, 39, 40, 41, 42, 43, 44, 45, 46, 47, 48, 49, 50, 51, 52, 53, 54, 55, 56, 57, 58, 59, 60, 61, 62, 63, 64, 65, 66, 67, 68, 69, 70, 71, 72, 73, 74, 75, 76, 77, 78, 79, 80, 81, 82, 83, 84, 85, 86, 87, 88, 89, 90, 91, 92, 93, 94, 95, 96, 97, 98, 99, 100, 101, 102, 103, 104, 105, 106, 107, 108, 109, 110, 111, 112, 113, 114, 115, 116, 117, 118, 119, 120, 121, 122, 123, 124, 125, 126, 127, 128, 129, 130, 131, 132, 133, 134, 135, 136, 137, 138, 139, 140, 141, 142, 143, 144, 145, 146, 147, 148, 149, 150, 151, 152, 153, 154, 155, 156, 157, 158, 159, 160, 161, 162, 163, 164, 165, 166, 167, 168, 169, 170, 171, 172, 173, 174, 175, 176, 177, 178, 179, 180, 181, 182, 183, 184, 185, 186, 187, 188, 189, 190, 191, 192, 193, 194, 195, 196, 197, 198, 199, 200, 201, 202, 203, 204, 205, 206, 207, 208, 209, 210, 211, 212, 213, 214, 215, 216, 217, 218, 219, 220, 221, 222, 223, 224, 225, 226, 227, 228, 229, 230, 231, 232, 233, 234, 235, 236, 237, 238, 239, 240, 241, 242, 243, 244, 245, 246, 247, 248, 249, 250, 251, 252, 253, 254, 255, 256, 257, 258, 259, 260, 261, 262, 263, 264, 265, 266, 267, 268, 269, 270, 271, 272, 273, 274, 275, 276, 277, 278, 279, 280, 281, 282, 283, 284, 285, 286, 287, 288, 289, 290, 291, 292, 293, 294, 295, 296, 297, 298, 299, 300, 301, 302, 303, 304, 305, 306, 307, 308, 309, 310, 311, 312, 313, 314, 315, 316, 317, 318, 319, 320, 321, 322, 323, 324, 325, 326, 327, 328, 329, 330, 331, 332, 333, 334, 335, 336, 337, 338, 339, 340, 341, 342, 343, 344, 345, 346, 347, 348, 349, 350, 351, 352, 353, 354, 355, 356, 357, 358, 359, 360, 361, 362, 363, 364, 365, 366, 367, 368, 369, 370, 371, 372, 373, 374, 375, 376, 377, 378, 379, 380, 381, 382, 383, 384, 385, 386, 387, 388, 389, 390, 391, 392, 393, 394, 395, 396, 397, 398, 399, 400, 401, 402, 403, 404, 405, 406, 407, 408, 409, 410, 411, 412, 413, 414, 415, 416, 417, 418, 419, 420, 421, 422, 423, 424, 425, 426, 427, 428, 429, 430, 431, 432, 433, 434, 435, 436, 437, 438, 439, 440, 441, 442, 443, 444, 445, 446, 447, 448, 449, 450, 451, 452, 453, 454, 455, 456, 457, 458, 459, 460, 461, 462, 463, 464, 465, 466, 467, 468, 469, 470, 471, 472, 473, 474, 475, 476, 477, 478, 479, 480, 481, 482, 483, 484, 485, 486, 487, 488, 489, 490, 491, 492, 493, 494, 495, 496, 497, 498, 499, 500, 501, 502, 503, 504, 505, 506, 507, 508, 509, 510, 511, 512, 513, 514, 515, 516, 517, 518, 519, 520, 521, 522, 523, 524, 525, 526, 527, 528, 529, 530, 531, 532, 533, 534, 535, 536, 537, 538, 539, 540, 541, 542, 543, 544, 545, 546, 547, 548, 549, 550, 551, 552, 553, 554, 555, 556, 557, 558, 559, 560, 561, 562, 563, 564, 565, 566, 567, 568, 569, 570, 571, 572, 573, 574, 575, 576, 577, 578, 579, 580, 581, 582, 583, 584, 585, 586, 587, 588, 589, 590, 591, 592, 593, 594, 595, 596, 597, 598, 599, 600, 601, 602, 603, 604, 605, 606, 607, 608, 609, 610, 611, 612, 613, 614, 615, 616, 617, 618, 619, 620, 621, 622, 623, 624, 625, 626, 627, 628, 629, 630, 631, 632, 633, 634, 635, 636, 637, 638, 639, 640, 641, 642, 643, 644, 645, 646, 647, 648, 649, 650, 651, 652, 653, 654, 655, 656, 657, 658, 659, 660, 661, 662, 663, 664, 665, 666, 667, 668, 669, 670, 671, 672, 673, 674, 675, 676, 677, 678, 679, 680, 681, 682, 683, 684, 685, 686, 687, 688, 689, 690, 691, 692, 693, 694, 695, 696, 697, 698, 699, 700, 701, 702, 703, 704, 705, 706, 707, 708, 709, 710, 711, 712, 713, 714, 715, 716, 717, 718, 719, 720, 721, 722, 723, 724, 725, 726, 727, 728, 729, 730, 731, 732, 733, 734, 735, 736, 737, 738, 739, 740, 741, 742, 743, 744, 745, 746, 747, 748, 749, 750, 751, 752, 753, 754, 755, 756, 757, 758, 759, 760, 761, 762, 763, 764, 765, 766, 767, 768, 769, 770, 771, 772, 773, 774, 775, 776, 777, 778, 779, 780, 781, 782, 783, 784, 785, 786, 787, 788, 789, 790, 791, 792, 793, 794, 795, 796, 797, 798, 799, 800, 801, 802, 803, 804, 805, 806, 807, 808, 809, 810, 811, 812, 813, 814, 815, 816, 817, 818, 819, 820, 821, 822, 823, 824, 825, 826, 827, 828, 829, 830, 831, 832, 833, 834, 835, 836, 837, 838, 839, 840, 841, 842, 843, 844, 845, 846, 847, 848, 849, 850, 851, 852, 853, 854, 855, 856, 857, 858, 859, 860, 861, 862, 863, 864, 865, 866, 867, 868, 869, 870, 871, 872, 873, 874, 875, 876, 877, 878, 879, 880, 881, 882, 883, 884, 885, 886, 887, 888, 889, 890, 891, 892, 893, 894, 895, 896, 897, 898, 899, 900, 901, 902, 903, 904, 905, 906, 907, 908, 909, 910, 911, 912, 913, 914, 915, 916, 917, 918, 919, 920, 921, 922, 923, 924, 925, 926, 927, 928, 929, 930, 931, 932, 933, 934, 935, 936, 937, 938, 939, 940, 941, 942, 943, 944, 945, 946, 947, 948, 949, 950, 951, 952, 953, 954, 955, 956, 957, 958, 959, 960, 961, 962, 963, 964, 965, 966, 967, 968, 969, 970, 971, 972, 973, 974, 975, 976, 977, 978, 979, 980, 981, 982, 983, 984, 985, 986, 987, 988, 989, 990, 991, 992, 993, 994, 995, 996, 997, 998, 999, 1000, 1001, 1002, 1003, 1004, 1005, 1006, 1007, 1008, 1009, 1010, 1011, 1012, 1013, 1014, 1015, 1016, 1017, 1018, 1019, 1020, 1021, 1022, 1023, 1024, 1025, 1026, 1027, 1028, 1029, 1030, 1031, 1032, 1033, 1034, 1035, 1036, 1037, 1038, 1039, 1040, 1041, 1042, 1043, 1044, 1045, 1046, 1047, 1048, 1049, 1050, 1051, 1052, 1053, 1054, 1055, 1056, 1057, 1058, 1059, 1060, 1061, 1062, 1063, 1064, 1065, 1066, 1067, 1068, 1069, 1070, 1071, 1072, 1073, 1074, 1075, 1076, 1077, 1078, 1079, 1080, 1081, 1082, 1083, 1084, 1085, 1086, 1087, 1088, 1089, 1090, 1091, 1092, 1093, 1094, 1095, 1096, 1097, 1098, 1099, 1100, 1101, 1102, 1103, 1104, 1105, 1106, 1107, 1108, 1109, 1110, 1111, 1112, 1113, 1114, 1115, 1116, 1117, 1118, 1119, 1120, 1121, 1122, 1123, 1124, 1125, 1126, 1127, 1128, 1129, 1130, 1131, 1132, 1133, 1134, 1135, 1136, 1137, 1138, 1139, 1140, 1141, 1142, 1143, 1144, 1145, 1146, 1147, 1148, 1149, 1150, 1151, 1152, 1153, 1154, 1155, 1156, 1157, 1158, 1159, 1160, 1161, 1162, 1163, 1164, 1165, 1166, 1167, 1168, 1169, 1170, 1171, 1172, 1173, 1174, 1175, 1176, 1177, 1178, 1179, 1180, 1181, 1182, 1183, 1184, 1185, 1186, 1187, 1188, 1189, 1190, 1191, 1192, 1193, 1194, 1195, 1196, 1197, 1198, 1199, 1200, 1201, 1202, 1203, 1204, 1205, 1206, 1207, 1208, 1209, 1210, 1211, 1212, 1213, 1214, 1215, 1216, 1217, 1218, 1219, 1220, 1221, 1222, 1223, 1224, 1225, 1226, 1227, 1228, 1229, 1230, 1231, 1232, 1233, 1234, 1235, 1236, 1237, 1238, 1239, 1240, 1241, 1242, 1243, 1244, 1245, 1246, 1247, 1248, 1249, 1250, 1251, 1252, 1253, 1254, 1255, 1256, 1257, 1258, 1259, 1260, 1261, 1262, 1263, 1264, 1265, 1266, 1267, 1268, 1269, 1270, 1271, 1272, 1273, 1274, 1275, 1276, 1277, 1278, 1279, 1280, 1281, 1282, 1283, 1284, 1285, 1286, 1287, 1288, 1289, 1290, 1291, 1292, 1293, 1294, 1295, 1296, 1297, 1298, 1299, 1300, 1301, 1302, 1303, 1304, 1305, 1306, 1307, 1308, 1309, 1310, 1311, 1312, 1313, 1314, 1315, 1316, 1317, 1318, 1319, 1320, 1321, 1322, 1323, 1324, 1325, 1326, 1327, 1328, 1329, 1330, 1331, 1332, 1333, 1334, 1335, 1336, 1337, 1338, 1339, 1340, 1341, 1342, 1343, 1344, 1345, 1346, 1347, 1348, 1349, 1350, 1351, 1352, 1353, 1354, 1355, 1356, 1357, 1358, 1359, 1360],
      "AcquisitionTime": ["103933.217500", "103937.217500", "103941.217500", "103945.217500", "103949.217500", "103953.217500", "103957.217500", "104001.217500", "104005.217500", "104009.217500", "104013.217500", "104017.217500", "104021.217500", "104025.217500", "104029.217500", "104033.217500", "104037.217500", "104041.217500", "104045.217500", "104049.217500", "104053.217500", "104057.217500", "104101.217500", "104105.217500", "104109.217500", "104113.217500", "104117.217500", "104121.217500", "104125.217500", "104129.217500", "104133.217500", "104137.217500", "104141.217500", "104145.217500", "104149.217500", "104153.217500", "104157.217500", "104201.217500", "104205.217500", "104209.217500", "104213.217500", "104217.217500", "104221.217500", "104225.217500", "104229.217500", "104233.217500", "104237.217500", "104241.217500", "104245.217500", "104249.217500", "104253.217500", "104257.217500", "104301.217500", "104305.217500", "104309.217500", "104313.217500", "104317.217500", "104321.217500", "104325.217500", "104329.217500", "104333.217500", "104337.217500", "104341.217500", "104345.217500", "104349.217500", "104353.217500", "104357.217500", "104401.217500", "104405.217500", "104409.217500", "104413.217500", "104417.217500", "104421.217500", "104425.217500", "104429.217500", "104433.217500", "104437.217500", "104441.217500", "104445.217500", "104449.217500", "104453.217500", "104457.217500", "104501.217500", "104505.217500", "104509.217500", "104513.217500", "104517.217500", "104521.217500", "104525.217500", "104529.217500", "104533.217500", "104537.217500", "104541.217500", "104545.217500", "104549.217500", "104553.217500", "104557.217500", "104601.217500", "104605.217500", "104609.217500", "104613.217500", "104617.217500", "104621.217500", "104625.217500", "104629.217500", "104633.217500", "104637.217500", "104641.217500", "104645.217500", "104649.217500", "104653.217500", "104657.217500", "104701.217500", "104705.217500", "104709.217500", "104713.217500", "104717.217500", "104721.217500", "104725.217500", "104729.217500", "104733.217500", "104737.217500", "104741.217500", "104745.217500", "104749.217500", "104753.217500", "104757.217500", "104801.217500", "104805.217500", "104809.217500", "104813.217500", "104817.217500", "104821.217500", "104825.217500", "104829.217500", "104833.217500", "104837.217500", "104841.217500", "104845.217500", "104849.217500", "104853.217500", "104857.217500", "104901.217500", "104905.217500", "104909.217500", "104913.217500", "104917.217500", "104921.217500", "104925.217500", "104929.217500", "104933.217500", "104937.217500", "104941.217500", "104945.217500", "104949.217500", "104953.217500", "104957.217500", "105001.217500", "105005.217500", "105009.217500", "105013.217500", "105017.217500", "105021.217500", "105025.217500", "105029.217500", "105033.217500", "105037.217500", "105041.217500", "105045.217500", "105049.217500", "105053.217500", "105057.217500", "105101.217500", "105105.217500", "105109.217500", "105113.217500", "105117.217500", "105121.217500", "105125.217500", "105129.217500", "105133.217500", "105137.217500", "105141.217500", "105145.217500", "105149.217500", "105153.217500", "105157.217500", "105201.217500", "105205.217500", "105209.217500", "105213.217500", "105217.217500", "105221.217500", "105225.217500", "105229.217500", "105233.217500", "105237.217500", "105241.217500", "105245.217500", "105249.217500", "105253.217500", "105257.217500", "105301.217500", "105305.217500", "105309.217500", "105313.217500", "105317.217500", "105321.217500", "105325.217500", "105329.217500", "105333.217500", "105337.217500", "105341.217500", "105345.217500", "105349.217500", "105353.217500", "105357.217500", "105401.217500", "105405.217500", "105409.217500", "105413.217500", "105417.217500", "105421.217500", "105425.217500", "105429.217500", "105433.217500", "105437.217500", "105441.217500", "105445.217500", "105449.217500", "105453.217500", "105457.217500", "105501.217500", "105505.217500", "105509.217500", "105513.217500", "105517.217500", "105521.217500", "105525.217500", "105529.217500", "105533.217500", "105537.217500", "105541.217500", "105545.217500", "105549.217500", "105553.217500", "105557.217500", "105601.217500", "105605.217500", "105609.217500", "105613.217500", "105617.217500", "105621.217500", "105625.217500", "105629.217500", "105633.217500", "105637.217500", "105641.217500", "105645.217500", "105649.217500", "105653.217500", "105657.217500", "105701.217500", "105705.217500", "105709.217500", "105713.217500", "105717.217500", "105721.217500", "105725.217500", "105729.217500", "105733.217500", "105737.217500", "105741.217500", "105745.217500", "105749.217500", "105753.217500", "105757.217500", "105801.217500", "105805.217500", "105809.217500", "105813.217500", "105817.217500", "105821.217500", "105825.217500", "105829.217500", "105833.217500", "105837.217500", "105841.217500", "105845.217500", "105849.217500", "105853.217500", "105857.217500", "105901.217500", "105905.217500", "105909.217500", "105913.217500", "105917.217500", "105921.217500", "105925.217500", "105929.217500", "105933.217500", "105937.217500", "105941.217500", "105945.217500", "105949.217500", "105953.217500", "105957.217500", "110001.217500", "110005.217500", "110009.217500", "110013.217500", "110017.217500", "110021.217500", "110025.217500", "110029.217500", "110033.217500", "110037.217500", "110041.217500", "110045.217500", "110049.217500", "110053.217500", "110057.217500", "110101.217500", "110105.217500", "110109.217500", "110113.217500", "110117.217500", "110121.217500", "110125.217500", "110129.217500", "110133.217500", "110137.217500", "110141.217500", "110145.217500", "110149.217500", "110153.217500", "110157.217500", "110201.217500", "110205.217500", "110209.217500", "110213.217500", "110217.217500", "110221.217500", "110225.217500", "110229.217500", "110233.217500", "110237.217500", "110241.217500", "110245.217500", "110249.217500", "110253.217500", "110257.217500", "110301.217500", "110305.217500", "110309.217500", "110313.217500", "110317.217500", "110321.217500", "110325.217500", "110329.217500", "110333.217500", "110337.217500", "110341.217500", "110345.217500", "110349.217500", "110353.217500", "110357.217500", "110401.217500", "110405.217500", "110409.217500", "110413.217500", "110417.217500", "110421.217500", "110425.217500", "110429.217500", "110433.217500", "110437.217500", "110441.217500", "110445.217500", "110449.217500", "110453.217500", "110457.217500", "110501.217500", "110505.217500", "110509.217500", "110513.217500", "110517.217500", "110521.217500", "110525.217500", "110529.217500", "110533.217500", "110537.217500", "110541.217500", "110545.217500", "110549.217500", "110553.217500", "110557.217500", "110601.217500", "110605.217500", "110609.217500", "110613.217500", "110617.217500", "110621.217500", "110625.217500", "110629.217500", "110633.217500", "110637.217500", "110641.217500", "110645.217500", "110649.217500", "110653.217500", "110657.217500", "110701.217500", "110705.217500", "110709.217500", "110713.217500", "110717.217500", "110721.217500", "110725.217500", "110729.217500", "110733.217500", "110737.217500", "110741.217500", "110745.217500", "110749.217500", "110753.217500", "110757.217500", "110801.217500", "110805.217500", "110809.217500", "110813.217500", "110817.217500", "110821.217500", "110825.217500", "110829.217500", "110833.217500", "110837.217500", "110841.217500", "110845.217500", "110849.217500", "110853.217500", "110857.217500", "110901.217500", "110905.217500", "110909.217500", "110913.217500", "110917.217500", "110921.217500", "110925.217500", "110929.217500", "110933.217500", "110937.217500", "110941.217500", "110945.217500", "110949.217500", "110953.217500", "110957.217500", "111001.217500", "111005.217500", "111009.217500", "111013.217500", "111017.217500", "111021.217500", "111025.217500", "111029.217500", "111033.217500", "111037.217500", "111041.217500", "111045.217500", "111049.217500", "111053.217500", "111057.217500", "111101.217500", "111105.217500", "111109.217500", "111113.217500", "111117.217500", "111121.217500", "111125.217500", "111129.217500", "111133.217500", "111137.217500", "111141.217500", "111145.217500", "111149.217500", "111153.217500", "111157.217500", "111201.217500", "111205.217500", "111209.217500", "111213.217500", "111217.217500", "111221.217500", "111225.217500", "111229.217500", "111233.217500", "111237.217500", "111241.217500", "111245.217500", "111249.217500", "111253.217500", "111257.217500", "111301.217500", "111305.217500", "111309.217500", "111313.217500", "111317.217500", "111321.217500", "111325.217500", "111329.217500", "111333.217500", "111337.217500", "111341.217500", "111345.217500", "111349.217500", "111353.217500", "111357.217500", "111401.217500", "111405.217500", "111409.217500", "111413.217500", "111417.217500", "111421.217500", "111425.217500", "111429.217500", "111433.217500", "111437.217500", "111441.217500", "111445.217500", "111449.217500", "111453.217500", "111457.217500", "111501.217500", "111505.217500", "111509.217500", "111513.217500", "111517.217500", "111521.217500", "111525.217500", "111529.217500", "111533.217500", "111537.217500", "111541.217500", "111545.217500", "111549.217500", "111553.217500", "111557.217500", "111601.217500", "111605.217500", "111609.217500", "111613.217500", "111617.217500", "111621.217500", "111625.217500", "111629.217500", "111633.217500", "111637.217500", "111641.217500", "111645.217500", "111649.217500", "111653.217500", "111657.217500", "111701.217500", "111705.217500", "111709.217500", "111713.217500", "111717.217500", "111721.217500", "111725.217500", "111729.217500", "111733.217500", "111737.217500", "111741.217500", "111745.217500", "111749.217500", "111753.217500", "111757.217500", "111801.217500", "111805.217500", "111809.217500", "111813.217500", "111817.217500", "111821.217500", "111825.217500", "111829.217500", "111833.217500", "111837.217500", "111841.217500", "111845.217500", "111849.217500", "111853.217500", "111857.217500", "111901.217500", "111905.217500", "111909.217500", "111913.217500", "111917.217500", "111921.217500", "111925.217500", "111929.217500", "111933.217500", "111937.217500", "111941.217500", "111945.217500", "111949.217500", "111953.217500", "111957.217500", "112001.217500", "112005.217500", "112009.217500", "112013.217500", "112017.217500", "112021.217500", "112025.217500", "112029.217500", "112033.217500", "112037.217500", "112041.217500", "112045.217500", "112049.217500", "112053.217500", "112057.217500", "112101.217500", "112105.217500", "112109.217500", "112113.217500", "112117.217500", "112121.217500", "112125.217500", "112129.217500", "112133.217500", "112137.217500", "112141.217500", "112145.217500", "112149.217500", "112153.217500", "112157.217500", "112201.217500", "112205.217500", "112209.217500", "112213.217500", "112217.217500", "112221.217500", "112225.217500", "112229.217500", "112233.217500", "112237.217500", "112241.217500", "112245.217500", "112249.217500", "112253.217500", "112257.217500", "112301.217500", "112305.217500", "112309.217500", "112313.217500", "112317.217500", "112321.217500", "112325.217500", "112329.217500", "112333.217500", "112337.217500", "112341.217500", "112345.217500", "112349.217500", "112353.217500", "112357.217500", "112401.217500", "112405.217500", "112409.217500", "112413.217500", "112417.217500", "112421.217500", "112425.217500", "112429.217500", "112433.217500", "112437.217500", "112441.217500", "112445.217500", "112449.217500", "112453.217500", "112457.217500", "112501.217500", "112505.217500", "112509.217500", "112513.217500", "112517.217500", "112521.217500", "112525.217500", "112529.217500", "112533.217500", "112537.217500", "112541.217500", "112545.217500", "112549.217500", "112553.217500", "112557.217500", "112601.217500", "112605.217500", "112609.217500", "112613.217500", "112617.217500", "112621.217500", "112625.217500", "112629.217500", "112633.217500", "112637.217500", "112641.217500", "112645.217500", "112649.217500", "112653.217500", "112657.217500", "112701.217500", "112705.217500", "112709.217500", "112713.217500", "112717.217500", "112721.217500", "112725.217500", "112729.217500", "112733.217500", "112737.217500", "112741.217500", "112745.217500", "112749.217500", "112753.217500", "112757.217500", "112801.217500", "112805.217500", "112809.217500", "112813.217500", "112817.217500", "112821.217500", "112825.217500", "112829.217500", "112833.217500", "112837.217500", "112841.217500", "112845.217500", "112849.217500", "112853.217500", "112857.217500", "112901.217500", "112905.217500", "112909.217500", "112913.217500", "112917.217500", "112921.217500", "112925.217500", "112929.217500", "112933.217500", "112937.217500", "112941.217500", "112945.217500", "112949.217500", "112953.217500", "112957.217500", "113001.217500", "113005.217500", "113009.217500", "113013.217500", "113017.217500", "113021.217500", "113025.217500", "113029.217500", "113033.217500", "113037.217500", "113041.217500", "113045.217500", "113049.217500", "113053.217500", "113057.217500", "113101.217500", "113105.217500", "113109.217500", "113113.217500", "113117.217500", "113121.217500", "113125.217500", "113129.217500", "113133.217500", "113137.217500", "113141.217500", "113145.217500", "113149.217500", "113153.217500", "113157.217500", "113201.217500", "113205.217500", "113209.217500", "113213.217500", "113217.217500", "113221.217500", "113225.217500", "113229.217500", "113233.217500", "113237.217500", "113241.217500", "113245.217500", "113249.217500", "113253.217500", "113257.217500", "113301.217500", "113305.217500", "113309.217500", "113313.217500", "113317.217500", "113321.217500", "113325.217500", "113329.217500", "113333.217500", "113337.217500", "113341.217500", "113345.217500", "113349.217500", "113353.217500", "113357.217500", "113401.217500", "113405.217500", "113409.217500", "113413.217500", "113417.217500", "113421.217500", "113425.217500", "113429.217500", "113433.217500", "113437.217500", "113441.217500", "113445.217500", "113449.217500", "113453.217500", "113457.217500", "113501.217500", "113505.217500", "113509.217500", "113513.217500", "113517.217500", "113521.217500", "113525.217500", "113529.217500", "113533.217500", "113537.217500", "113541.217500", "113545.217500", "113549.217500", "113553.217500", "113557.217500", "113601.217500", "113605.217500", "113609.217500", "113613.217500", "113617.217500", "113621.217500", "113625.217500", "113629.217500", "113633.217500", "113637.217500", "113641.217500", "113645.217500", "113649.217500", "113653.217500", "113657.217500", "113701.217500", "113705.217500", "113709.217500", "113713.217500", "113717.217500", "113721.217500", "113725.217500", "113729.217500", "113733.217500", "113737.217500", "113741.217500", "113745.217500", "113749.217500", "113753.217500", "113757.217500", "113801.217500", "113805.217500", "113809.217500", "113813.217500", "113817.217500", "113821.217500", "113825.217500", "113829.217500", "113833.217500", "113837.217500", "113841.217500", "113845.217500", "113849.217500", "113853.217500", "113857.217500", "113901.217500", "113905.217500", "113909.217500", "113913.217500", "113917.217500", "113921.217500", "113925.217500", "113929.217500", "113933.217500", "113937.217500", "113941.217500", "113945.217500", "113949.217500", "113953.217500", "113957.217500", "114001.217500", "114005.217500", "114009.217500", "114013.217500", "114017.217500", "114021.217500", "114025.217500", "114029.217500", "114033.217500", "114037.217500", "114041.217500", "114045.217500", "114049.217500", "114053.217500", "114057.217500", "114101.217500", "114105.217500", "114109.217500", "114113.217500", "114117.217500", "114121.217500", "114125.217500", "114129.217500", "114133.217500", "114137.217500", "114141.217500", "114145.217500", "114149.217500", "114153.217500", "114157.217500", "114201.217500", "114205.217500", "114209.217500", "114213.217500", "114217.217500", "114221.217500", "114225.217500", "114229.217500", "114233.217500", "114237.217500", "114241.217500", "114245.217500", "114249.217500", "114253.217500", "114257.217500", "114301.217500", "114305.217500", "114309.217500", "114313.217500", "114317.217500", "114321.217500", "114325.217500", "114329.217500", "114333.217500", "114337.217500", "114341.217500", "114345.217500", "114349.217500", "114353.217500", "114357.217500", "114401.217500", "114405.217500", "114409.217500", "114413.217500", "114417.217500", "114421.217500", "114425.217500", "114429.217500", "114433.217500", "114437.217500", "114441.217500", "114445.217500", "114449.217500", "114453.217500", "114457.217500", "114501.217500", "114505.217500", "114509.217500", "114513.217500", "114517.217500", "114521.217500", "114525.217500", "114529.217500", "114533.217500", "114537.217500", "114541.217500", "114545.217500", "114549.217500", "114553.217500", "114557.217500", "114601.217500", "114605.217500", "114609.217500", "114613.217500", "114617.217500", "114621.217500", "114625.217500", "114629.217500", "114633.217500", "114637.217500", "114641.217500", "114645.217500", "114649.217500", "114653.217500", "114657.217500", "114701.217500", "114705.217500", "114709.217500", "114713.217500", "1