{
  "AcquisitionMatrixPE": 64,
  "AcquisitionNumber": 1,
  "AcquisitionTime": "10:29:9.995000",
  "BandwidthPerPixelPhaseEncode": 60.096,
  "BaseResolution": 64,
  "BodyPartExamined": "BRAIN",
  "CoilString": "HEA;HEP",
  "ConsistencyInfo": "N4_VE11P_LATEST_20161021",
  "ConversionSoftware": "dcm2niix",
  "ConversionSoftwareVersion": "v1.0.20190410  GCC6.3.0",
  "DerivedVendorReportedEchoSpacing": 0.000520001,
  "DeviceSerialNumber": "51066",
  "DwellTime": 3.4e-06,
  "EchoTime": 0.03,
  "EchoTrainLength": 31,
  "EffectiveEchoSpacing": 0.000260001,
  "FlipAngle": 90,
  "ImageOrientationPatientDICOM": [0.999985, 0.000590121, -0.00553004, 5.91104e-08, 0.994353, 0.10612],
  "ImageType": [
    "ORIGINAL",
    "PRIMARY",
    "M",
    "ND",
    "NORM",
    "MOSAIC"
],
  "ImagingFrequency": 123.239,
  "InPlanePhaseEncodingDirectionDICOM": "COL",
  "InstitutionAddress": "Blackburn_Road_770_Clayton_Victoria_AU_3168",
  "InstitutionName": "MONASH_BIOMEDICAL_IMAGING",
  "InstitutionalDepartmentName": "Department",
  "MRAcquisitionType": "2D",
  "MagneticFieldStrength": 3,
  "Manufacturer": "Siemens",
  "ManufacturersModelName": "Biograph_mMR",
  "Modality": "MR",
  "ParallelReductionFactorInPlane": 2,
  "PartialFourier": 1,
  "PatientPosition": "HFS",
  "PercentPhaseFOV": 100,
  "PhaseEncodingDirection": "j-",
  "PhaseEncodingSteps": 63,
  "PhaseResolution": 1,
  "PixelBandwidth": 2300,
  "ProcedureStepDescription": "MR-PET_Scan",
  "ProtocolName": "Head_A-P_Full_checker_ep2D_task_bold_32-32",
  "PulseSequenceDetails": "%SiemensSeq%_ep2d_bold",
  "ReceiveCoilActiveElements": "H1U;H2L",
  "ReceiveCoilName": "HeadNeck_MRPET",
  "ReconMatrixPE": 64,
  "RefLinesPE": 24,
  "RepetitionTime": 4,
  "SAR": 0.0918162,
  "ScanOptions": "FS",
  "ScanningSequence": "EP",
  "SequenceName": "_epfid2d1_64",
  "SequenceVariant": "SK",
  "SeriesDescription": "Head_A-P_Full_checker_ep2D_task_bold_32-32",
  "SeriesNumber": 19,
  "ShimSetting": [-8363, -1099, -3793, 353, -238, -223, -227, -130],
  "SliceThickness": 3,
  "SliceTiming": [1.99, 0, 2.08, 0.09, 2.17, 0.18, 2.26, 0.27, 2.35, 0.3625, 2.4425, 0.4525, 2.5325, 0.5425, 2.6225, 0.6325, 2.7125, 0.7225, 2.8025, 0.8125, 2.895, 0.905, 2.985, 0.995, 3.075, 1.085, 3.165, 1.175, 3.255, 1.265, 3.345, 1.3575, 3.4375, 1.4475, 3.5275, 1.5375, 3.6175, 1.6275, 3.7075, 1.7175, 3.7975, 1.8075, 3.89, 1.9],
  "SoftwareVersions": "syngo_MR_E11",
  "SpacingBetweenSlices": 3,
  "StationName": "MRC51066",
  "TaskName": "checkerboard",
  "TotalReadoutTime": 0.01638,
  "TxRefAmp": 299.605,
  "dcmmeta_affine": [
    [-2.9687039852142334, 1.7548389052990387e-07, -0.01668429747223854, 95.94805908203125],
    [-0.0017519214889034629, 2.951986312866211, 0.3183553218841553, -56.133365631103516],
    [-0.01641729101538658, -0.31504398584365845, 2.983013868331909, -18.2534236907959],
    [0.0, 0.0, 0.0, 1.0]
],
  "dcmmeta_reorient_transform": [
    [0.0, -1.0, 0.0, 63.0],
    [1.0, 0.0, 0.0, 0.0],
    [0.0, 0.0, 1.0, 0.0],
    [0.0, 0.0, 0.0, 1.0]
],
  "dcmmeta_shape": [64, 64, 44, 1360],
  "dcmmeta_slice_dim": 2,
  "dcmmeta_version": 0.6,
  "global": {
    "const": {
      "AcquisitionMatrix": [64, 0, 0, 64],
      "Allergies": "None",
      "AngioFlag": "N",
      "BitsAllocated": 16,
      "BitsStored": 12,
      "BodyPartExamined": "BRAIN",
      "Columns": 448,
      "EchoNumbers": 1,
      "EchoTime": 30.0,
      "EchoTrainLength": 31,
      "FlipAngle": 90.0,
      "HighBit": 11,
      "ImageOrientationPatient": [0.99998453511457, 0.00059012090303, -0.005530035173, 5.9110363e-08, 0.99435332154281, 0.10612008262705],
      "ImagePositionPatient": [-665.93928796645, -696.95954041057, -95.437522777009],
      "ImageType": [
        "ORIGINAL",
        "PRIMARY",
        "M",
        "ND",
        "NORM",
        "MOSAIC"
],
      "ImagedNucleus": "1H",
      "ImagingFrequency": 123.23926,
      "InPlanePhaseEncodingDirection": "COL",
      "MRAcquisitionType": "2D",
      "MagneticFieldStrength": 3.0,
      "Manufacturer": "SIEMENS",
      "ManufacturerModelName": "Biograph_mMR",
      "MedicalAlerts": "None",
      "Modality": "MR",
      "NumberOfAverages": 1.0,
      "NumberOfPhaseEncodingSteps": 63,
      "PercentPhaseFieldOfView": 100.0,
      "PercentSampling": 100.0,
      "PerformedProcedureStepStartTime": "093425.097000",
      "PhotometricInterpretation": "MONOCHROME2",
      "PixelBandwidth": 2300.0,
      "PixelRepresentation": 0,
      "PixelSpacing": [2.96875, 2.96875],
      "PregnancyStatus": 4,
      "ProtocolName": "Head_A-P Full checker_ep2D_task_bold_32-32",
      "RepetitionTime": 4000.0,
      "RequestAttributesSequence": [
        {
          "RequestedProcedureID": "MMH004",
          "ScheduledProcedureStepDescription": "MR-PET Scan",
          "ScheduledProcedureStepID": "001"}
],
      "Rows": 448,
      "SAR": 0.0918161727411,
      "SamplesPerPixel": 1,
      "ScanOptions": "FS",
      "ScanningSequence": "EP",
      "SequenceName": "*epfid2d1_64",
      "SequenceVariant": "SK",
      "SeriesDescription": "Head_A-P Full checker_ep2D_task_bold_32-32",
      "SeriesNumber": 19,
      "SeriesTime": "103053.011000",
      "SliceLocation": -24.640466147767,
      "SliceThickness": 3.0,
      "SmallestImagePixelValue": 0,
      "SoftwareVersions": "syngo MR E11",
      "SpacingBetweenSlices": 3.0000000715767,
      "SpecificCharacterSet": "ISO_IR 100",
      "StudyID": "MMH004",
      "StudyTime": "093424.929000",
      "TransmitCoilName": "Body",
      "VariableFlipAngleFlag": "N",
      "WindowCenterWidthExplanation": "Algo1",
      "dBdt": 0.0},
    "slices": {}
  },
  "time": {
    "samples": {
      "AcquisitionNumber": [1, 2, 3, 4, 5, 6, 7, 8, 9, 10, 11, 12, 13, 14, 15, 16, 17, 18, 19, 20, 21, 22, 23, 24, 25, 26, 27, 28, 29, 30, 31, 32, 33, 34, 35, 36, 37, 38, 39, 40, 41, 42, 43, 44, 45, 46, 47, 48, 49, 50, 51, 52, 53, 54, 55, 56, 57, 58, 59, 60, 61, 62, 63, 64, 65, 66, 67, 68, 69, 70, 71, 72, 73, 74, 75, 76, 77, 78, 79, 80, 81, 82, 83, 84, 85, 86, 87, 88, 89, 90, 91, 92, 93, 94, 95, 96, 97, 98, 99, 100, 101, 102, 103, 104, 105, 106, 107, 108, 109, 110, 111, 112, 113, 114, 115, 116, 117, 118, 119, 120, 121, 122, 123, 124, 125, 126, 127, 128, 129, 130, 131, 132, 133, 134, 135, 136, 137, 138, 139, 140, 141, 142, 143, 144, 145, 146, 147, 148, 149, 150, 151, 152, 153, 154, 155, 156, 157, 158, 159, 160, 161, 162, 163, 164, 165, 166, 167, 168, 169, 170, 171, 172, 173, 174, 175, 176, 177, 178, 179, 180, 181, 182, 183, 184, 185, 186, 187, 188, 189, 190, 191, 192, 193, 194, 195, 196, 197, 198, 199, 200, 201, 202, 203, 204, 205, 206, 207, 208, 209, 210, 211, 212, 213, 214, 215, 216, 217, 218, 219, 220, 221, 222, 223, 224, 225, 226, 227, 228, 229, 230, 231, 232, 233, 234, 235, 236, 237, 238, 239, 240, 241, 242, 243, 244, 245, 246, 247, 248, 249, 250, 251, 252, 253, 254, 255, 256, 257, 258, 259, 260, 261, 262, 263, 264, 265, 266, 267, 268, 269, 270, 271, 272, 273, 274, 275, 276, 277, 278, 279, 280, 281, 282, 283, 284, 285, 286, 287, 288, 289, 290, 291, 292, 293, 294, 295, 296, 297, 298, 299, 300, 301, 302, 303, 304, 305, 306, 307, 308, 309, 310, 311, 312, 313, 314, 315, 316, 317, 318, 319, 320, 321, 322, 323, 324, 325, 326, 327, 328, 329, 330, 331, 332, 333, 334, 335, 336, 337, 338, 339, 340, 341, 342, 343, 344, 345, 346, 347, 348, 349, 350, 351, 352, 353, 354, 355, 356, 357, 358, 359, 360, 361, 362, 363, 364, 365, 366, 367, 368, 369, 370, 371, 372, 373, 374, 375, 376, 377, 378, 379, 380, 381, 382, 383, 384, 385, 386, 387, 388, 389, 390, 391, 392, 393, 394, 395, 396, 397, 398, 399, 400, 401, 402, 403, 404, 405, 406, 407, 408, 409, 410, 411, 412, 413, 414, 415, 416, 417, 418, 419, 420, 421, 422, 423, 424, 425, 426, 427, 428, 429, 430, 431, 432, 433, 434, 435, 436, 437, 438, 439, 440, 441, 442, 443, 444, 445, 446, 447, 448, 449, 450, 451, 452, 453, 454, 455, 456, 457, 458, 459, 460, 461, 462, 463, 464, 465, 466, 467, 468, 469, 470, 471, 472, 473, 474, 475, 476, 477, 478, 479, 480, 481, 482, 483, 484, 485, 486, 487, 488, 489, 490, 491, 492, 493, 494, 495, 496, 497, 498, 499, 500, 501, 502, 503, 504, 505, 506, 507, 508, 509, 510, 511, 512, 513, 514, 515, 516, 517, 518, 519, 520, 521, 522, 523, 524, 525, 526, 527, 528, 529, 530, 531, 532, 533, 534, 535, 536, 537, 538, 539, 540, 541, 542, 543, 544, 545, 546, 547, 548, 549, 550, 551, 552, 553, 554, 555, 556, 557, 558, 559, 560, 561, 562, 563, 564, 565, 566, 567, 568, 569, 570, 571, 572, 573, 574, 575, 576, 577, 578, 579, 580, 581, 582, 583, 584, 585, 586, 587, 588, 589, 590, 591, 592, 593, 594, 595, 596, 597, 598, 599, 600, 601, 602, 603, 604, 605, 606, 607, 608, 609, 610, 611, 612, 613, 614, 615, 616, 617, 618, 619, 620, 621, 622, 623, 624, 625, 626, 627, 628, 629, 630, 631, 632, 633, 634, 635, 636, 637, 638, 639, 640, 641, 642, 643, 644, 645, 646, 647, 648, 649, 650, 651, 652, 653, 654, 655, 656, 657, 658, 659, 660, 661, 662, 663, 664, 665, 666, 667, 668, 669, 670, 671, 672, 673, 674, 675, 676, 677, 678, 679, 680, 681, 682, 683, 684, 685, 686, 687, 688, 689, 690, 691, 692, 693, 694, 695, 696, 697, 698, 699, 700, 701, 702, 703, 704, 705, 706, 707, 708, 709, 710, 711, 712, 713, 714, 715, 716, 717, 718, 719, 720, 721, 722, 723, 724, 725, 726, 727, 728, 729, 730, 731, 732, 733, 734, 735, 736, 737, 738, 739, 740, 741, 742, 743, 744, 745, 746, 747, 748, 749, 750, 751, 752, 753, 754, 755, 756, 757, 758, 759, 760, 761, 762, 763, 764, 765, 766, 767, 768, 769, 770, 771, 772, 773, 774, 775, 776, 777, 778, 779, 780, 781, 782, 783, 784, 785, 786, 787, 788, 789, 790, 791, 792, 793, 794, 795, 796, 797, 798, 799, 800, 801, 802, 803, 804, 805, 806, 807, 808, 809, 810, 811, 812, 813, 814, 815, 816, 817, 818, 819, 820, 821, 822, 823, 824, 825, 826, 827, 828, 829, 830, 831, 832, 833, 834, 835, 836, 837, 838, 839, 840, 841, 842, 843, 844, 845, 846, 847, 848, 849, 850, 851, 852, 853, 854, 855, 856, 857, 858, 859, 860, 861, 862, 863, 864, 865, 866, 867, 868, 869, 870, 871, 872, 873, 874, 875, 876, 877, 878, 879, 880, 881, 882, 883, 884, 885, 886, 887, 888, 889, 890, 891, 892, 893, 894, 895, 896, 897, 898, 899, 900, 901, 902, 903, 904, 905, 906, 907, 908, 909, 910, 911, 912, 913, 914, 915, 916, 917, 918, 919, 920, 921, 922, 923, 924, 925, 926, 927, 928, 929, 930, 931, 932, 933, 934, 935, 936, 937, 938, 939, 940, 941, 942, 943, 944, 945, 946, 947, 948, 949, 950, 951, 952, 953, 954, 955, 956, 957, 958, 959, 960, 961, 962, 963, 964, 965, 966, 967, 968, 969, 970, 971, 972, 973, 974, 975, 976, 977, 978, 979, 980, 981, 982, 983, 984, 985, 986, 987, 988, 989, 990, 991, 992, 993, 994, 995, 996, 997, 998, 999, 1000, 1001, 1002, 1003, 1004, 1005, 1006, 1007, 1008, 1009, 1010, 1011, 1012, 1013, 1014, 1015, 1016, 1017, 1018, 1019, 1020, 1021, 1022, 1023, 1024, 1025, 1026, 1027, 1028, 1029, 1030, 1031, 1032, 1033, 1034, 1035, 1036, 1037, 1038, 1039, 1040, 1041, 1042, 1043, 1044, 1045, 1046, 1047, 1048, 1049, 1050, 1051, 1052, 1053, 1054, 1055, 1056, 1057, 1058, 1059, 1060, 1061, 1062, 1063, 1064, 1065, 1066, 1067, 1068, 1069, 1070, 1071, 1072, 1073, 1074, 1075, 1076, 1077, 1078, 1079, 1080, 1081, 1082, 1083, 1084, 1085, 1086, 1087, 1088, 1089, 1090, 1091, 1092, 1093, 1094, 1095, 1096, 1097, 1098, 1099, 1100, 1101, 1102, 1103, 1104, 1105, 1106, 1107, 1108, 1109, 1110, 1111, 1112, 1113, 1114, 1115, 1116, 1117, 1118, 1119, 1120, 1121, 1122, 1123, 1124, 1125, 1126, 1127, 1128, 1129, 1130, 1131, 1132, 1133, 1134, 1135, 1136, 1137, 1138, 1139, 1140, 1141, 1142, 1143, 1144, 1145, 1146, 1147, 1148, 1149, 1150, 1151, 1152, 1153, 1154, 1155, 1156, 1157, 1158, 1159, 1160, 1161, 1162, 1163, 1164, 1165, 1166, 1167, 1168, 1169, 1170, 1171, 1172, 1173, 1174, 1175, 1176, 1177, 1178, 1179, 1180, 1181, 1182, 1183, 1184, 1185, 1186, 1187, 1188, 1189, 1190, 1191, 1192, 1193, 1194, 1195, 1196, 1197, 1198, 1199, 1200, 1201, 1202, 1203, 1204, 1205, 1206, 1207, 1208, 1209, 1210, 1211, 1212, 1213, 1214, 1215, 1216, 1217, 1218, 1219, 1220, 1221, 1222, 1223, 1224, 1225, 1226, 1227, 1228, 1229, 1230, 1231, 1232, 1233, 1234, 1235, 1236, 1237, 1238, 1239, 1240, 1241, 1242, 1243, 1244, 1245, 1246, 1247, 1248, 1249, 1250, 1251, 1252, 1253, 1254, 1255, 1256, 1257, 1258, 1259, 1260, 1261, 1262, 1263, 1264, 1265, 1266, 1267, 1268, 1269, 1270, 1271, 1272, 1273, 1274, 1275, 1276, 1277, 1278, 1279, 1280, 1281, 1282, 1283, 1284, 1285, 1286, 1287, 1288, 1289, 1290, 1291, 1292, 1293, 1294, 1295, 1296, 1297, 1298, 1299, 1300, 1301, 1302, 1303, 1304, 1305, 1306, 1307, 1308, 1309, 1310, 1311, 1312, 1313, 1314, 1315, 1316, 1317, 1318, 1319, 1320, 1321, 1322, 1323, 1324, 1325, 1326, 1327, 1328, 1329, 1330, 1331, 1332, 1333, 1334, 1335, 1336, 1337, 1338, 1339, 1340, 1341, 1342, 1343, 1344, 1345, 1346, 1347, 1348, 1349, 1350, 1351, 1352, 1353, 1354, 1355, 1356, 1357, 1358, 1359, 1360],
      "AcquisitionTime": ["102909.995000", "102913.995000", "102917.995000", "102921.995000", "102925.995000", "102929.995000", "102933.995000", "102937.995000", "102941.995000", "102945.995000", "102949.995000", "102953.995000", "102957.995000", "103001.995000", "103005.995000", "103009.995000", "103013.995000", "103017.995000", "103021.995000", "103025.995000", "103029.995000", "103033.995000", "103037.995000", "103041.995000", "103045.995000", "103049.995000", "103053.995000", "103057.995000", "103101.995000", "103105.995000", "103109.995000", "103113.995000", "103117.995000", "103121.995000", "103125.995000", "103129.995000", "103133.995000", "103137.995000", "103141.995000", "103145.995000", "103149.995000", "103153.995000", "103157.995000", "103201.995000", "103205.995000", "103209.995000", "103213.995000", "103217.995000", "103221.995000", "103225.995000", "103229.995000", "103233.995000", "103237.995000", "103241.995000", "103245.995000", "103249.995000", "103253.995000", "103257.995000", "103301.995000", "103305.995000", "103309.995000", "103313.995000", "103317.995000", "103321.995000", "103325.995000", "103329.995000", "103333.995000", "103337.995000", "103341.995000", "103345.995000", "103349.995000", "103353.995000", "103357.995000", "103401.995000", "103405.995000", "103409.995000", "103413.995000", "103417.995000", "103421.995000", "103425.995000", "103429.995000", "103433.995000", "103437.995000", "103441.995000", "103445.995000", "103449.995000", "103453.995000", "103457.995000", "103501.995000", "103505.995000", "103509.995000", "103513.995000", "103517.995000", "103521.995000", "103525.995000", "103529.995000", "103533.995000", "103537.995000", "103541.995000", "103545.995000", "103549.995000", "103553.995000", "103557.995000", "103601.995000", "103605.995000", "103609.995000", "103613.995000", "103617.995000", "103621.995000", "103625.995000", "103629.995000", "103633.995000", "103637.995000", "103641.995000", "103645.995000", "103649.995000", "103653.995000", "103657.995000", "103701.995000", "103705.995000", "103709.995000", "103713.995000", "103717.995000", "103721.995000", "103725.995000", "103729.995000", "103733.995000", "103737.995000", "103741.995000", "103745.995000", "103749.995000", "103753.995000", "103757.995000", "103801.995000", "103805.995000", "103809.995000", "103813.995000", "103817.995000", "103821.995000", "103825.995000", "103829.995000", "103833.995000", "103837.995000", "103841.995000", "103845.995000", "103849.995000", "103853.995000", "103857.995000", "103901.995000", "103905.995000", "103909.995000", "103913.995000", "103917.995000", "103921.995000", "103925.995000", "103929.995000", "103933.995000", "103937.995000", "103941.995000", "103945.995000", "103949.995000", "103953.995000", "103957.995000", "104001.995000", "104005.995000", "104009.995000", "104013.995000", "104017.995000", "104021.995000", "104025.995000", "104029.995000", "104033.995000", "104037.995000", "104041.995000", "104045.995000", "104049.995000", "104053.995000", "104057.995000", "104101.995000", "104105.995000", "104109.995000", "104113.995000", "104117.995000", "104121.995000", "104125.995000", "104129.995000", "104133.995000", "104137.995000", "104141.995000", "104145.995000", "104149.995000", "104153.995000", "104157.995000", "104201.995000", "104205.995000", "104209.995000", "104213.995000", "104217.995000", "104221.995000", "104225.995000", "104229.995000", "104233.995000", "104237.995000", "104241.995000", "104245.995000", "104249.995000", "104253.995000", "104257.995000", "104301.995000", "104305.995000", "104309.995000", "104313.995000", "104317.995000", "104321.995000", "104325.995000", "104329.995000", "104333.995000", "104337.995000", "104341.995000", "104345.995000", "104349.995000", "104353.995000", "104357.995000", "104401.995000", "104405.995000", "104409.995000", "104413.995000", "104417.995000", "104421.995000", "104425.995000", "104429.995000", "104433.995000", "104437.995000", "104441.995000", "104445.995000", "104449.995000", "104453.995000", "104457.995000", "104501.995000", "104505.995000", "104509.995000", "104513.995000", "104517.995000", "104521.995000", "104525.995000", "104529.995000", "104533.995000", "104537.995000", "104541.995000", "104545.995000", "104549.995000", "104553.995000", "104557.995000", "104601.995000", "104605.995000", "104609.995000", "104613.995000", "104617.995000", "104621.995000", "104625.995000", "104629.995000", "104633.995000", "104637.995000", "104641.995000", "104645.995000", "104649.995000", "104653.995000", "104657.995000", "104701.995000", "104705.995000", "104709.995000", "104713.995000", "104717.995000", "104721.995000", "104725.995000", "104729.995000", "104733.995000", "104737.995000", "104741.995000", "104745.995000", "104749.995000", "104753.995000", "104757.995000", "104801.995000", "104805.995000", "104809.995000", "104813.995000", "104817.995000", "104821.995000", "104825.995000", "104829.995000", "104833.995000", "104837.995000", "104841.995000", "104845.995000", "104849.995000", "104853.995000", "104857.995000", "104901.995000", "104905.995000", "104909.995000", "104913.995000", "104917.995000", "104921.995000", "104925.995000", "104929.995000", "104933.995000", "104937.995000", "104941.995000", "104945.995000", "104949.995000", "104953.995000", "104957.995000", "105001.995000", "105005.995000", "105009.995000", "105013.995000", "105017.995000", "105021.995000", "105025.995000", "105029.995000", "105033.995000", "105037.995000", "105041.995000", "105045.995000", "105049.995000", "105053.995000", "105057.995000", "105101.995000", "105105.995000", "105109.995000", "105113.995000", "105117.995000", "105121.995000", "105125.995000", "105129.995000", "105133.995000", "105137.995000", "105141.995000", "105145.995000", "105149.995000", "105153.995000", "105157.995000", "105201.995000", "105205.995000", "105209.995000", "105213.995000", "105217.995000", "105221.995000", "105225.995000", "105229.995000", "105233.995000", "105237.995000", "105241.995000", "105245.995000", "105249.995000", "105253.995000", "105257.995000", "105301.995000", "105305.995000", "105309.995000", "105313.995000", "105317.995000", "105321.995000", "105325.995000", "105329.995000", "105333.995000", "105337.995000", "105341.995000", "105345.995000", "105349.995000", "105353.995000", "105357.995000", "105401.995000", "105405.995000", "105409.995000", "105413.995000", "105417.995000", "105421.995000", "105425.995000", "105429.995000", "105433.995000", "105437.995000", "105441.995000", "105445.995000", "105449.995000", "105453.995000", "105457.995000", "105501.995000", "105505.995000", "105509.995000", "105513.995000", "105517.995000", "105521.995000", "105525.995000", "105529.995000", "105533.995000", "105537.995000", "105541.995000", "105545.995000", "105549.995000", "105553.995000", "105557.995000", "105601.995000", "105605.995000", "105609.995000", "105613.995000", "105617.995000", "105621.995000", "105625.995000", "105629.995000", "105633.995000", "105637.995000", "105641.995000", "105645.995000", "105649.995000", "105653.995000", "105657.995000", "105701.995000", "105705.995000", "105709.995000", "105713.995000", "105717.995000", "105721.995000", "105725.995000", "105729.995000", "105733.995000", "105737.995000", "105741.995000", "105745.995000", "105749.995000", "105753.995000", "105757.995000", "105801.995000", "105805.995000", "105809.995000", "105813.995000", "105817.995000", "105821.995000", "105825.995000", "105829.995000", "105833.995000", "105837.995000", "105841.995000", "105845.995000", "105849.995000", "105853.995000", "105857.995000", "105901.995000", "105905.995000", "105909.995000", "105913.995000", "105917.995000", "105921.995000", "105925.995000", "105929.995000", "105933.995000", "105937.995000", "105941.995000", "105945.995000", "105949.995000", "105953.995000", "105957.995000", "110001.995000", "110005.995000", "110009.995000", "110013.995000", "110017.995000", "110021.995000", "110025.995000", "110029.995000", "110033.995000", "110037.995000", "110041.995000", "110045.995000", "110049.995000", "110053.995000", "110057.995000", "110101.995000", "110105.995000", "110109.995000", "110113.995000", "110117.995000", "110121.995000", "110125.995000", "110129.995000", "110133.995000", "110137.995000", "110141.995000", "110145.995000", "110149.995000", "110153.995000", "110157.995000", "110201.995000", "110205.995000", "110209.995000", "110213.995000", "110217.995000", "110221.995000", "110225.995000", "110229.995000", "110233.995000", "110237.995000", "110241.995000", "110245.995000", "110249.995000", "110253.995000", "110257.995000", "110301.995000", "110305.995000", "110309.995000", "110313.995000", "110317.995000", "110321.995000", "110325.995000", "110329.995000", "110333.995000", "110337.995000", "110341.995000", "110345.995000", "110349.995000", "110353.995000", "110357.995000", "110401.995000", "110405.995000", "110409.995000", "110413.995000", "110417.995000", "110421.995000", "110425.995000", "110429.995000", "110433.995000", "110437.995000", "110441.995000", "110445.995000", "110449.995000", "110453.995000", "110457.995000", "110501.995000", "110505.995000", "110509.995000", "110513.995000", "110517.995000", "110521.995000", "110525.995000", "110529.995000", "110533.995000", "110537.995000", "110541.995000", "110545.995000", "110549.995000", "110553.995000", "110557.995000", "110601.995000", "110605.995000", "110609.995000", "110613.995000", "110617.995000", "110621.995000", "110625.995000", "110629.995000", "110633.995000", "110637.995000", "110641.995000", "110645.995000", "110649.995000", "110653.995000", "110657.995000", "110701.995000", "110705.995000", "110709.995000", "110713.995000", "110717.995000", "110721.995000", "110725.995000", "110729.995000", "110733.995000", "110737.995000", "110741.995000", "110745.995000", "110749.995000", "110753.995000", "110757.995000", "110801.995000", "110805.995000", "110809.995000", "110813.995000", "110817.995000", "110821.995000", "110825.995000", "110829.995000", "110833.995000", "110837.995000", "110841.995000", "110845.995000", "110849.995000", "110853.995000", "110857.995000", "110901.995000", "110905.995000", "110909.995000", "110913.995000", "110917.995000", "110921.995000", "110925.995000", "110929.995000", "110933.995000", "110937.995000", "110941.995000", "110945.995000", "110949.995000", "110953.995000", "110957.995000", "111001.995000", "111005.995000", "111009.995000", "111013.995000", "111017.995000", "111021.995000", "111025.995000", "111029.995000", "111033.995000", "111037.995000", "111041.995000", "111045.995000", "111049.995000", "111053.995000", "111057.995000", "111101.995000", "111105.995000", "111109.995000", "111113.995000", "111117.995000", "111121.995000", "111125.995000", "111129.995000", "111133.995000", "111137.995000", "111141.995000", "111145.995000", "111149.995000", "111153.995000", "111157.995000", "111201.995000", "111205.995000", "111209.995000", "111213.995000", "111217.995000", "111221.995000", "111225.995000", "111229.995000", "111233.995000", "111237.995000", "111241.995000", "111245.995000", "111249.995000", "111253.995000", "111257.995000", "111301.995000", "111305.995000", "111309.995000", "111313.995000", "111317.995000", "111321.995000", "111325.995000", "111329.995000", "111333.995000", "111337.995000", "111341.995000", "111345.995000", "111349.995000", "111353.995000", "111357.995000", "111401.995000", "111405.995000", "111409.995000", "111413.995000", "111417.995000", "111421.995000", "111425.995000", "111429.995000", "111433.995000", "111437.995000", "111441.995000", "111445.995000", "111449.995000", "111453.995000", "111457.995000", "111501.995000", "111505.995000", "111509.995000", "111513.995000", "111517.995000", "111521.995000", "111525.995000", "111529.995000", "111533.995000", "111537.995000", "111541.995000", "111545.995000", "111549.995000", "111553.995000", "111557.995000", "111601.995000", "111605.995000", "111609.995000", "111613.995000", "111617.995000", "111621.995000", "111625.995000", "111629.995000", "111633.995000", "111637.995000", "111641.995000", "111645.995000", "111649.995000", "111653.995000", "111657.995000", "111701.995000", "111705.995000", "111709.995000", "111713.995000", "111717.995000", "111721.995000", "111725.995000", "111729.995000", "111733.995000", "111737.995000", "111741.995000", "111745.995000", "111749.995000", "111753.995000", "111757.995000", "111801.995000", "111805.995000", "111809.995000", "111813.995000", "111817.995000", "111821.995000", "111825.995000", "111829.995000", "111833.995000", "111837.995000", "111841.995000", "111845.995000", "111849.995000", "111853.995000", "111857.995000", "111901.995000", "111905.995000", "111909.995000", "111913.995000", "111917.995000", "111921.995000", "111925.995000", "111929.995000", "111933.995000", "111937.995000", "111941.995000", "111945.995000", "111949.995000", "111953.995000", "111957.995000", "112001.995000", "112005.995000", "112009.995000", "112013.995000", "112017.995000", "112021.995000", "112025.995000", "112029.995000", "112033.995000", "112037.995000", "112041.995000", "112045.995000", "112049.995000", "112053.995000", "112057.995000", "112101.995000", "112105.995000", "112109.995000", "112113.995000", "112117.995000", "112121.995000", "112125.995000", "112129.995000", "112133.995000", "112137.995000", "112141.995000", "112145.995000", "112149.995000", "112153.995000", "112157.995000", "112201.995000", "112205.995000", "112209.995000", "112213.995000", "112217.995000", "112221.995000", "112225.995000", "112229.995000", "112233.995000", "112237.995000", "112241.995000", "112245.995000", "112249.995000", "112253.995000", "112257.995000", "112301.995000", "112305.995000", "112309.995000", "112313.995000", "112317.995000", "112321.995000", "112325.995000", "112329.995000", "112333.995000", "112337.995000", "112341.995000", "112345.995000", "112349.995000", "112353.995000", "112357.995000", "112401.995000", "112405.995000", "112409.995000", "112413.995000", "112417.995000", "112421.995000", "112425.995000", "112429.995000", "112433.995000", "112437.995000", "112441.995000", "112445.995000", "112449.995000", "112453.995000", "112457.995000", "112501.995000", "112505.995000", "112509.995000", "112513.995000", "112517.995000", "112521.995000", "112525.995000", "112529.995000", "112533.995000", "112537.995000", "112541.995000", "112545.995000", "112549.995000", "112553.995000", "112557.995000", "112601.995000", "112605.995000", "112609.995000", "112613.995000", "112617.995000", "112621.995000", "112625.995000", "112629.995000", "112633.995000", "112637.995000", "112641.995000", "112645.995000", "112649.995000", "112653.995000", "112657.995000", "112701.995000", "112705.995000", "112709.995000", "112713.995000", "112717.995000", "112721.995000", "112725.995000", "112729.995000", "112733.995000", "112737.995000", "112741.995000", "112745.995000", "112749.995000", "112753.995000", "112757.995000", "112801.995000", "112805.995000", "112809.995000", "112813.995000", "112817.995000", "112821.995000", "112825.995000", "112829.995000", "112833.995000", "112837.995000", "112841.995000", "112845.995000", "112849.995000", "112853.995000", "112857.995000", "112901.995000", "112905.995000", "112909.995000", "112913.995000", "112917.995000", "112921.995000", "112925.995000", "112929.995000", "112933.995000", "112937.995000", "112941.995000", "112945.995000", "112949.995000", "112953.995000", "112957.995000", "113001.995000", "113005.995000", "113009.995000", "113013.995000", "113017.995000", "113021.995000", "113025.995000", "113029.995000", "113033.995000", "113037.995000", "113041.995000", "113045.995000", "113049.995000", "113053.995000", "113057.995000", "113101.995000", "113105.995000", "113109.995000", "113113.995000", "113117.995000", "113121.995000", "113125.995000", "113129.995000", "113133.995000", "113137.995000", "113141.995000", "113145.995000", "113149.995000", "113153.995000", "113157.995000", "113201.995000", "113205.995000", "113209.995000", "113213.995000", "113217.995000", "113221.995000", "113225.995000", "113229.995000", "113233.995000", "113237.995000", "113241.995000", "113245.995000", "113249.995000", "113253.995000", "113257.995000", "113301.995000", "113305.995000", "113309.995000", "113313.995000", "113317.995000", "113321.995000", "113325.995000", "113329.995000", "113333.995000", "113337.995000", "113341.995000", "113345.995000", "113349.995000", "113353.995000", "113357.995000", "113401.995000", "113405.995000", "113409.995000", "113413.995000", "113417.995000", "113421.995000", "113425.995000", "113429.995000", "113433.995000", "113437.995000", "113441.995000", "113445.995000", "113449.995000", "113453.995000", "113457.995000", "113501.995000", "113505.995000", "113509.995000", "113513.995000", "113517.995000", "113521.995000", "113525.995000", "113529.995000", "113533.995000", "113537.995000", "113541.995000", "113545.995000", "113549.995000", "113553.995000", "113557.995000", "113601.995000", "113605.995000", "113609.995000", "113613.995000", "113617.995000", "113621.995000", "113625.995000", "113629.995000", "113633.995000", "113637.995000", "113641.995000", "113645.995000", "113649.99500