{
  "AcquisitionMatrixPE": 64,
  "AcquisitionNumber": 1,
  "AcquisitionTime": "11:09:26.210000",
  "BandwidthPerPixelPhaseEncode": 60.096,
  "BaseResolution": 64,
  "BodyPartExamined": "BRAIN",
  "CoilString": "HEA;HEP",
  "ConsistencyInfo": "N4_VE11P_LATEST_20161021",
  "ConversionSoftware": "dcm2niix",
  "ConversionSoftwareVersion": "v1.0.20190410  GCC6.3.0",
  "DerivedVendorReportedEchoSpacing": 0.000520001,
  "DeviceSerialNumber": "51066",
  "DwellTime": 3.4e-06,
  "EchoTime": 0.03,
  "EchoTrainLength": 31,
  "EffectiveEchoSpacing": 0.000260001,
  "FlipAngle": 90,
  "ImageOrientationPatientDICOM": [1, 0, 0, 0, 1, 0],
  "ImageType": [
    "ORIGINAL",
    "PRIMARY",
    "M",
    "ND",
    "NORM",
    "MOSAIC"
],
  "ImagingFrequency": 123.239,
  "InPlanePhaseEncodingDirectionDICOM": "COL",
  "InstitutionAddress": "Blackburn_Road_770_Clayton_Victoria_AU_3168",
  "InstitutionName": "MONASH_BIOMEDICAL_IMAGING",
  "InstitutionalDepartmentName": "Department",
  "MRAcquisitionType": "2D",
  "MagneticFieldStrength": 3,
  "Manufacturer": "Siemens",
  "ManufacturersModelName": "Biograph_mMR",
  "Modality": "MR",
  "ParallelReductionFactorInPlane": 2,
  "PartialFourier": 1,
  "PatientPosition": "HFS",
  "PercentPhaseFOV": 100,
  "PhaseEncodingDirection": "j-",
  "PhaseEncodingSteps": 63,
  "PhaseResolution": 1,
  "PixelBandwidth": 2300,
  "ProcedureStepDescription": "MR-PET_Scan",
  "ProtocolName": "Head_A-P_Full_checker_ep2D_task_bold_32-32",
  "PulseSequenceDetails": "%SiemensSeq%_ep2d_bold",
  "ReceiveCoilActiveElements": "H1U;H2L",
  "ReceiveCoilName": "HeadNeck_MRPET",
  "ReconMatrixPE": 64,
  "RefLinesPE": 24,
  "RepetitionTime": 4,
  "SAR": 0.0764634,
  "ScanOptions": "FS",
  "ScanningSequence": "EP",
  "SequenceName": "_epfid2d1_64",
  "SequenceVariant": "SK",
  "SeriesDescription": "Head_A-P_Full_checker_ep2D_task_bold_32-32",
  "SeriesNumber": 19,
  "ShimSetting": [-8388, -1071, -3733, 477, -454, -292, -678, -152],
  "SliceThickness": 3,
  "SliceTiming": [1.99, 0, 2.08, 0.09, 2.17, 0.18, 2.26, 0.2725, 2.3525, 0.3625, 2.4425, 0.4525, 2.5325, 0.5425, 2.6225, 0.6325, 2.7125, 0.7225, 2.805, 0.815, 2.895, 0.905, 2.985, 0.995, 3.075, 1.085, 3.165, 1.175, 3.255, 1.265, 3.3475, 1.3575, 3.4375, 1.4475, 3.5275, 1.5375, 3.6175, 1.6275, 3.7075, 1.7175, 3.8, 1.81, 3.89, 1.9],
  "SoftwareVersions": "syngo_MR_E11",
  "SpacingBetweenSlices": 3,
  "StationName": "MRC51066",
  "TaskName": "checkerboard",
  "TotalReadoutTime": 0.01638,
  "TxRefAmp": 301.563,
  "dcmmeta_affine": [
    [-2.96875, 0.0, 0.0, 96.21227264404297],
    [0.0, 2.96875, 0.0, -78.02298736572266],
    [0.0, 0.0, 3.0, -35.779136657714844],
    [0.0, 0.0, 0.0, 1.0]
],
  "dcmmeta_reorient_transform": [
    [0.0, -1.0, 0.0, 63.0],
    [1.0, 0.0, 0.0, 0.0],
    [0.0, 0.0, 1.0, 0.0],
    [0.0, 0.0, 0.0, 1.0]
],
  "dcmmeta_shape": [64, 64, 44, 1360],
  "dcmmeta_slice_dim": 2,
  "dcmmeta_version": 0.6,
  "global": {
    "const": {
      "AcquisitionMatrix": [64, 0, 0, 64],
      "Allergies": "None",
      "AngioFlag": "N",
      "BitsAllocated": 16,
      "BitsStored": 12,
      "BodyPartExamined": "BRAIN",
      "Columns": 448,
      "EchoNumbers": 1,
      "EchoTime": 30.0,
      "EchoTrainLength": 31,
      "FlipAngle": 90.0,
      "HighBit": 11,
      "ImageOrientationPatient": [1.0, 0.0, 0.0, 0.0, 1.0, 0.0],
      "ImagePositionPatient": [-666.21227049828, -679.00826072693, -35.779136657715],
      "ImageType": [
        "ORIGINAL",
        "PRIMARY",
        "M",
        "ND",
        "NORM",
        "MOSAIC"
],
      "ImagedNucleus": "1H",
      "ImagingFrequency": 123.239185,
      "InPlanePhaseEncodingDirection": "COL",
      "MRAcquisitionType": "2D",
      "MagneticFieldStrength": 3.0,
      "Manufacturer": "SIEMENS",
      "ManufacturerModelName": "Biograph_mMR",
      "MedicalAlerts": "None",
      "Modality": "MR",
      "NumberOfAverages": 1.0,
      "NumberOfPhaseEncodingSteps": 63,
      "PercentPhaseFieldOfView": 100.0,
      "PercentSampling": 100.0,
      "PerformedProcedureStepStartTime": "103123.567000",
      "PhotometricInterpretation": "MONOCHROME2",
      "PixelBandwidth": 2300.0,
      "PixelRepresentation": 0,
      "PixelSpacing": [2.96875, 2.96875],
      "PregnancyStatus": 4,
      "ProtocolName": "Head_A-P Full checker_ep2D_task_bold_32-32",
      "RepetitionTime": 4000.0,
      "RequestAttributesSequence": [
        {
          "RequestedProcedureID": "MMH004",
          "ScheduledProcedureStepDescription": "MR-PET Scan",
          "ScheduledProcedureStepID": "001"}
],
      "Rows": 448,
      "SAR": 0.07646342919799,
      "SamplesPerPixel": 1,
      "ScanOptions": "FS",
      "ScanningSequence": "EP",
      "SequenceName": "*epfid2d1_64",
      "SequenceVariant": "SK",
      "SeriesDescription": "Head_A-P Full checker_ep2D_task_bold_32-32",
      "SeriesNumber": 19,
      "SeriesTime": "110940.290000",
      "SliceLocation": -35.779136657715,
      "SliceThickness": 3.0,
      "SmallestImagePixelValue": 0,
      "SoftwareVersions": "syngo MR E11",
      "SpacingBetweenSlices": 3.0,
      "SpecificCharacterSet": "ISO_IR 100",
      "StudyID": "MMH004",
      "StudyTime": "103123.417000",
      "TransmitCoilName": "Body",
      "VariableFlipAngleFlag": "N",
      "WindowCenterWidthExplanation": "Algo1",
      "dBdt": 0.0},
    "slices": {}
  },
  "time": {
    "samples": {
      "AcquisitionNumber": [1, 2, 3, 4, 5, 6, 7, 8, 9, 10, 11, 12, 13, 14, 15, 16, 17, 18, 19, 20, 21, 22, 23, 24, 25, 26, 27, 28, 29, 30, 31, 32, 33, 34, 35, 36, 37, 38, 39, 40, 41, 42, 43, 44, 45, 46, 47, 48, 49, 50, 51, 52, 53, 54, 55, 56, 57, 58, 59, 60, 61, 62, 63, 64, 65, 66, 67, 68, 69, 70, 71, 72, 73, 74, 75, 76, 77, 78, 79, 80, 81, 82, 83, 84, 85, 86, 87, 88, 89, 90, 91, 92, 93, 94, 95, 96, 97, 98, 99, 100, 101, 102, 103, 104, 105, 106, 107, 108, 109, 110, 111, 112, 113, 114, 115, 116, 117, 118, 119, 120, 121, 122, 123, 124, 125, 126, 127, 128, 129, 130, 131, 132, 133, 134, 135, 136, 137, 138, 139, 140, 141, 142, 143, 144, 145, 146, 147, 148, 149, 150, 151, 152, 153, 154, 155, 156, 157, 158, 159, 160, 161, 162, 163, 164, 165, 166, 167, 168, 169, 170, 171, 172, 173, 174, 175, 176, 177, 178, 179, 180, 181, 182, 183, 184, 185, 186, 187, 188, 189, 190, 191, 192, 193, 194, 195, 196, 197, 198, 199, 200, 201, 202, 203, 204, 205, 206, 207, 208, 209, 210, 211, 212, 213, 214, 215, 216, 217, 218, 219, 220, 221, 222, 223, 224, 225, 226, 227, 228, 229, 230, 231, 232, 233, 234, 235, 236, 237, 238, 239, 240, 241, 242, 243, 244, 245, 246, 247, 248, 249, 250, 251, 252, 253, 254, 255, 256, 257, 258, 259, 260, 261, 262, 263, 264, 265, 266, 267, 268, 269, 270, 271, 272, 273, 274, 275, 276, 277, 278, 279, 280, 281, 282, 283, 284, 285, 286, 287, 288, 289, 290, 291, 292, 293, 294, 295, 296, 297, 298, 299, 300, 301, 302, 303, 304, 305, 306, 307, 308, 309, 310, 311, 312, 313, 314, 315, 316, 317, 318, 319, 320, 321, 322, 323, 324, 325, 326, 327, 328, 329, 330, 331, 332, 333, 334, 335, 336, 337, 338, 339, 340, 341, 342, 343, 344, 345, 346, 347, 348, 349, 350, 351, 352, 353, 354, 355, 356, 357, 358, 359, 360, 361, 362, 363, 364, 365, 366, 367, 368, 369, 370, 371, 372, 373, 374, 375, 376, 377, 378, 379, 380, 381, 382, 383, 384, 385, 386, 387, 388, 389, 390, 391, 392, 393, 394, 395, 396, 397, 398, 399, 400, 401, 402, 403, 404, 405, 406, 407, 408, 409, 410, 411, 412, 413, 414, 415, 416, 417, 418, 419, 420, 421, 422, 423, 424, 425, 426, 427, 428, 429, 430, 431, 432, 433, 434, 435, 436, 437, 438, 439, 440, 441, 442, 443, 444, 445, 446, 447, 448, 449, 450, 451, 452, 453, 454, 455, 456, 457, 458, 459, 460, 461, 462, 463, 464, 465, 466, 467, 468, 469, 470, 471, 472, 473, 474, 475, 476, 477, 478, 479, 480, 481, 482, 483, 484, 485, 486, 487, 488, 489, 490, 491, 492, 493, 494, 495, 496, 497, 498, 499, 500, 501, 502, 503, 504, 505, 506, 507, 508, 509, 510, 511, 512, 513, 514, 515, 516, 517, 518, 519, 520, 521, 522, 523, 524, 525, 526, 527, 528, 529, 530, 531, 532, 533, 534, 535, 536, 537, 538, 539, 540, 541, 542, 543, 544, 545, 546, 547, 548, 549, 550, 551, 552, 553, 554, 555, 556, 557, 558, 559, 560, 561, 562, 563, 564, 565, 566, 567, 568, 569, 570, 571, 572, 573, 574, 575, 576, 577, 578, 579, 580, 581, 582, 583, 584, 585, 586, 587, 588, 589, 590, 591, 592, 593, 594, 595, 596, 597, 598, 599, 600, 601, 602, 603, 604, 605, 606, 607, 608, 609, 610, 611, 612, 613, 614, 615, 616, 617, 618, 619, 620, 621, 622, 623, 624, 625, 626, 627, 628, 629, 630, 631, 632, 633, 634, 635, 636, 637, 638, 639, 640, 641, 642, 643, 644, 645, 646, 647, 648, 649, 650, 651, 652, 653, 654, 655, 656, 657, 658, 659, 660, 661, 662, 663, 664, 665, 666, 667, 668, 669, 670, 671, 672, 673, 674, 675, 676, 677, 678, 679, 680, 681, 682, 683, 684, 685, 686, 687, 688, 689, 690, 691, 692, 693, 694, 695, 696, 697, 698, 699, 700, 701, 702, 703, 704, 705, 706, 707, 708, 709, 710, 711, 712, 713, 714, 715, 716, 717, 718, 719, 720, 721, 722, 723, 724, 725, 726, 727, 728, 729, 730, 731, 732, 733, 734, 735, 736, 737, 738, 739, 740, 741, 742, 743, 744, 745, 746, 747, 748, 749, 750, 751, 752, 753, 754, 755, 756, 757, 758, 759, 760, 761, 762, 763, 764, 765, 766, 767, 768, 769, 770, 771, 772, 773, 774, 775, 776, 777, 778, 779, 780, 781, 782, 783, 784, 785, 786, 787, 788, 789, 790, 791, 792, 793, 794, 795, 796, 797, 798, 799, 800, 801, 802, 803, 804, 805, 806, 807, 808, 809, 810, 811, 812, 813, 814, 815, 816, 817, 818, 819, 820, 821, 822, 823, 824, 825, 826, 827, 828, 829, 830, 831, 832, 833, 834, 835, 836, 837, 838, 839, 840, 841, 842, 843, 844, 845, 846, 847, 848, 849, 850, 851, 852, 853, 854, 855, 856, 857, 858, 859, 860, 861, 862, 863, 864, 865, 866, 867, 868, 869, 870, 871, 872, 873, 874, 875, 876, 877, 878, 879, 880, 881, 882, 883, 884, 885, 886, 887, 888, 889, 890, 891, 892, 893, 894, 895, 896, 897, 898, 899, 900, 901, 902, 903, 904, 905, 906, 907, 908, 909, 910, 911, 912, 913, 914, 915, 916, 917, 918, 919, 920, 921, 922, 923, 924, 925, 926, 927, 928, 929, 930, 931, 932, 933, 934, 935, 936, 937, 938, 939, 940, 941, 942, 943, 944, 945, 946, 947, 948, 949, 950, 951, 952, 953, 954, 955, 956, 957, 958, 959, 960, 961, 962, 963, 964, 965, 966, 967, 968, 969, 970, 971, 972, 973, 974, 975, 976, 977, 978, 979, 980, 981, 982, 983, 984, 985, 986, 987, 988, 989, 990, 991, 992, 993, 994, 995, 996, 997, 998, 999, 1000, 1001, 1002, 1003, 1004, 1005, 1006, 1007, 1008, 1009, 1010, 1011, 1012, 1013, 1014, 1015, 1016, 1017, 1018, 1019, 1020, 1021, 1022, 1023, 1024, 1025, 1026, 1027, 1028, 1029, 1030, 1031, 1032, 1033, 1034, 1035, 1036, 1037, 1038, 1039, 1040, 1041, 1042, 1043, 1044, 1045, 1046, 1047, 1048, 1049, 1050, 1051, 1052, 1053, 1054, 1055, 1056, 1057, 1058, 1059, 1060, 1061, 1062, 1063, 1064, 1065, 1066, 1067, 1068, 1069, 1070, 1071, 1072, 1073, 1074, 1075, 1076, 1077, 1078, 1079, 1080, 1081, 1082, 1083, 1084, 1085, 1086, 1087, 1088, 1089, 1090, 1091, 1092, 1093, 1094, 1095, 1096, 1097, 1098, 1099, 1100, 1101, 1102, 1103, 1104, 1105, 1106, 1107, 1108, 1109, 1110, 1111, 1112, 1113, 1114, 1115, 1116, 1117, 1118, 1119, 1120, 1121, 1122, 1123, 1124, 1125, 1126, 1127, 1128, 1129, 1130, 1131, 1132, 1133, 1134, 1135, 1136, 1137, 1138, 1139, 1140, 1141, 1142, 1143, 1144, 1145, 1146, 1147, 1148, 1149, 1150, 1151, 1152, 1153, 1154, 1155, 1156, 1157, 1158, 1159, 1160, 1161, 1162, 1163, 1164, 1165, 1166, 1167, 1168, 1169, 1170, 1171, 1172, 1173, 1174, 1175, 1176, 1177, 1178, 1179, 1180, 1181, 1182, 1183, 1184, 1185, 1186, 1187, 1188, 1189, 1190, 1191, 1192, 1193, 1194, 1195, 1196, 1197, 1198, 1199, 1200, 1201, 1202, 1203, 1204, 1205, 1206, 1207, 1208, 1209, 1210, 1211, 1212, 1213, 1214, 1215, 1216, 1217, 1218, 1219, 1220, 1221, 1222, 1223, 1224, 1225, 1226, 1227, 1228, 1229, 1230, 1231, 1232, 1233, 1234, 1235, 1236, 1237, 1238, 1239, 1240, 1241, 1242, 1243, 1244, 1245, 1246, 1247, 1248, 1249, 1250, 1251, 1252, 1253, 1254, 1255, 1256, 1257, 1258, 1259, 1260, 1261, 1262, 1263, 1264, 1265, 1266, 1267, 1268, 1269, 1270, 1271, 1272, 1273, 1274, 1275, 1276, 1277, 1278, 1279, 1280, 1281, 1282, 1283, 1284, 1285, 1286, 1287, 1288, 1289, 1290, 1291, 1292, 1293, 1294, 1295, 1296, 1297, 1298, 1299, 1300, 1301, 1302, 1303, 1304, 1305, 1306, 1307, 1308, 1309, 1310, 1311, 1312, 1313, 1314, 1315, 1316, 1317, 1318, 1319, 1320, 1321, 1322, 1323, 1324, 1325, 1326, 1327, 1328, 1329, 1330, 1331, 1332, 1333, 1334, 1335, 1336, 1337, 1338, 1339, 1340, 1341, 1342, 1343, 1344, 1345, 1346, 1347, 1348, 1349, 1350, 1351, 1352, 1353, 1354, 1355, 1356, 1357, 1358, 1359, 1360],
      "AcquisitionTime": ["110926.210000", "110930.210000", "110934.210000", "110938.210000", "110942.210000", "110946.210000", "110950.210000", "110954.210000", "110958.210000", "111002.210000", "111006.210000", "111010.210000", "111014.210000", "111018.210000", "111022.210000", "111026.210000", "111030.210000", "111034.210000", "111038.210000", "111042.210000", "111046.210000", "111050.210000", "111054.210000", "111058.210000", "111102.210000", "111106.210000", "111110.210000", "111114.210000", "111118.210000", "111122.210000", "111126.210000", "111130.210000", "111134.210000", "111138.210000", "111142.210000", "111146.210000", "111150.210000", "111154.210000", "111158.210000", "111202.210000", "111206.210000", "111210.210000", "111214.210000", "111218.210000", "111222.210000", "111226.210000", "111230.210000", "111234.210000", "111238.210000", "111242.210000", "111246.210000", "111250.210000", "111254.210000", "111258.210000", "111302.210000", "111306.210000", "111310.210000", "111314.210000", "111318.210000", "111322.210000", "111326.210000", "111330.210000", "111334.210000", "111338.210000", "111342.210000", "111346.210000", "111350.210000", "111354.210000", "111358.210000", "111402.210000", "111406.210000", "111410.210000", "111414.210000", "111418.210000", "111422.210000", "111426.210000", "111430.210000", "111434.210000", "111438.210000", "111442.210000", "111446.210000", "111450.210000", "111454.210000", "111458.210000", "111502.210000", "111506.210000", "111510.210000", "111514.210000", "111518.210000", "111522.210000", "111526.210000", "111530.210000", "111534.210000", "111538.210000", "111542.210000", "111546.210000", "111550.210000", "111554.210000", "111558.210000", "111602.210000", "111606.210000", "111610.210000", "111614.210000", "111618.210000", "111622.210000", "111626.210000", "111630.210000", "111634.210000", "111638.210000", "111642.210000", "111646.210000", "111650.210000", "111654.210000", "111658.210000", "111702.210000", "111706.210000", "111710.210000", "111714.210000", "111718.210000", "111722.210000", "111726.210000", "111730.210000", "111734.210000", "111738.210000", "111742.210000", "111746.210000", "111750.210000", "111754.210000", "111758.210000", "111802.210000", "111806.210000", "111810.210000", "111814.210000", "111818.210000", "111822.210000", "111826.210000", "111830.210000", "111834.210000", "111838.210000", "111842.210000", "111846.210000", "111850.210000", "111854.210000", "111858.210000", "111902.210000", "111906.210000", "111910.210000", "111914.210000", "111918.210000", "111922.210000", "111926.210000", "111930.210000", "111934.210000", "111938.210000", "111942.210000", "111946.210000", "111950.210000", "111954.210000", "111958.210000", "112002.210000", "112006.210000", "112010.210000", "112014.210000", "112018.210000", "112022.210000", "112026.210000", "112030.210000", "112034.210000", "112038.210000", "112042.210000", "112046.210000", "112050.210000", "112054.210000", "112058.210000", "112102.210000", "112106.210000", "112110.210000", "112114.210000", "112118.210000", "112122.210000", "112126.210000", "112130.210000", "112134.210000", "112138.210000", "112142.210000", "112146.210000", "112150.210000", "112154.210000", "112158.210000", "112202.210000", "112206.210000", "112210.210000", "112214.210000", "112218.210000", "112222.210000", "112226.210000", "112230.210000", "112234.210000", "112238.210000", "112242.210000", "112246.210000", "112250.210000", "112254.210000", "112258.210000", "112302.210000", "112306.210000", "112310.210000", "112314.210000", "112318.210000", "112322.210000", "112326.210000", "112330.210000", "112334.210000", "112338.210000", "112342.210000", "112346.210000", "112350.210000", "112354.210000", "112358.210000", "112402.210000", "112406.210000", "112410.210000", "112414.210000", "112418.210000", "112422.210000", "112426.210000", "112430.210000", "112434.210000", "112438.210000", "112442.210000", "112446.210000", "112450.210000", "112454.210000", "112458.210000", "112502.210000", "112506.210000", "112510.210000", "112514.210000", "112518.210000", "112522.210000", "112526.210000", "112530.210000", "112534.210000", "112538.210000", "112542.210000", "112546.210000", "112550.210000", "112554.210000", "112558.210000", "112602.210000", "112606.210000", "112610.210000", "112614.210000", "112618.210000", "112622.210000", "112626.210000", "112630.210000", "112634.210000", "112638.210000", "112642.210000", "112646.210000", "112650.210000", "112654.210000", "112658.210000", "112702.210000", "112706.210000", "112710.210000", "112714.210000", "112718.210000", "112722.210000", "112726.210000", "112730.210000", "112734.210000", "112738.210000", "112742.210000", "112746.210000", "112750.210000", "112754.210000", "112758.210000", "112802.210000", "112806.210000", "112810.210000", "112814.210000", "112818.210000", "112822.210000", "112826.210000", "112830.210000", "112834.210000", "112838.210000", "112842.210000", "112846.210000", "112850.210000", "112854.210000", "112858.210000", "112902.210000", "112906.210000", "112910.210000", "112914.210000", "112918.210000", "112922.210000", "112926.210000", "112930.210000", "112934.210000", "112938.210000", "112942.210000", "112946.210000", "112950.210000", "112954.210000", "112958.210000", "113002.210000", "113006.210000", "113010.210000", "113014.210000", "113018.210000", "113022.210000", "113026.210000", "113030.210000", "113034.210000", "113038.210000", "113042.210000", "113046.210000", "113050.210000", "113054.210000", "113058.210000", "113102.210000", "113106.210000", "113110.210000", "113114.210000", "113118.210000", "113122.210000", "113126.210000", "113130.210000", "113134.210000", "113138.210000", "113142.210000", "113146.210000", "113150.210000", "113154.210000", "113158.210000", "113202.210000", "113206.210000", "113210.210000", "113214.210000", "113218.210000", "113222.210000", "113226.210000", "113230.210000", "113234.210000", "113238.210000", "113242.210000", "113246.210000", "113250.210000", "113254.210000", "113258.210000", "113302.210000", "113306.210000", "113310.210000", "113314.210000", "113318.210000", "113322.210000", "113326.210000", "113330.210000", "113334.210000", "113338.210000", "113342.210000", "113346.210000", "113350.210000", "113354.210000", "113358.210000", "113402.210000", "113406.210000", "113410.210000", "113414.210000", "113418.210000", "113422.210000", "113426.210000", "113430.210000", "113434.210000", "113438.210000", "113442.210000", "113446.210000", "113450.210000", "113454.210000", "113458.210000", "113502.210000", "113506.210000", "113510.210000", "113514.210000", "113518.210000", "113522.210000", "113526.210000", "113530.210000", "113534.210000", "113538.210000", "113542.210000", "113546.210000", "113550.210000", "113554.210000", "113558.210000", "113602.210000", "113606.210000", "113610.210000", "113614.210000", "113618.210000", "113622.210000", "113626.210000", "113630.210000", "113634.210000", "113638.210000", "113642.210000", "113646.210000", "113650.210000", "113654.210000", "113658.210000", "113702.210000", "113706.210000", "113710.210000", "113714.210000", "113718.210000", "113722.210000", "113726.210000", "113730.210000", "113734.210000", "113738.210000", "113742.210000", "113746.210000", "113750.210000", "113754.210000", "113758.210000", "113802.210000", "113806.210000", "113810.210000", "113814.210000", "113818.210000", "113822.210000", "113826.210000", "113830.210000", "113834.210000", "113838.210000", "113842.210000", "113846.210000", "113850.210000", "113854.210000", "113858.210000", "113902.210000", "113906.210000", "113910.210000", "113914.210000", "113918.210000", "113922.210000", "113926.210000", "113930.210000", "113934.210000", "113938.210000", "113942.210000", "113946.210000", "113950.210000", "113954.210000", "113958.210000", "114002.210000", "114006.210000", "114010.210000", "114014.210000", "114018.210000", "114022.210000", "114026.210000", "114030.210000", "114034.210000", "114038.210000", "114042.210000", "114046.210000", "114050.210000", "114054.210000", "114058.210000", "114102.210000", "114106.210000", "114110.210000", "114114.210000", "114118.210000", "114122.210000", "114126.210000", "114130.210000", "114134.210000", "114138.210000", "114142.210000", "114146.210000", "114150.210000", "114154.210000", "114158.210000", "114202.210000", "114206.210000", "114210.210000", "114214.210000", "114218.210000", "114222.210000", "114226.210000", "114230.210000", "114234.210000", "114238.210000", "114242.210000", "114246.210000", "114250.210000", "114254.210000", "114258.210000", "114302.210000", "114306.210000", "114310.210000", "114314.210000", "114318.210000", "114322.210000", "114326.210000", "114330.210000", "114334.210000", "114338.210000", "114342.210000", "114346.210000", "114350.210000", "114354.210000", "114358.210000", "114402.210000", "114406.210000", "114410.210000", "114414.210000", "114418.210000", "114422.210000", "114426.210000", "114430.210000", "114434.210000", "114438.210000", "114442.210000", "114446.210000", "114450.210000", "114454.210000", "114458.210000", "114502.210000", "114506.210000", "114510.210000", "114514.210000", "114518.210000", "114522.210000", "114526.210000", "114530.210000", "114534.210000", "114538.210000", "114542.210000", "114546.210000", "114550.210000", "114554.210000", "114558.210000", "114602.210000", "114606.210000", "114610.210000", "114614.210000", "114618.210000", "114622.210000", "114626.210000", "114630.210000", "114634.210000", "114638.210000", "114642.210000", "114646.210000", "114650.210000", "114654.210000", "114658.210000", "114702.210000", "114706.210000", "114710.210000", "114714.210000", "114718.210000", "114722.210000", "114726.210000", "114730.210000", "114734.210000", "114738.210000", "114742.210000", "114746.210000", "114750.210000", "114754.210000", "114758.210000", "114802.210000", "114806.210000", "114810.210000", "114814.210000", "114818.210000", "114822.210000", "114826.210000", "114830.210000", "114834.210000", "114838.210000", "114842.210000", "114846.210000", "114850.210000", "114854.210000", "114858.210000", "114902.210000", "114906.210000", "114910.210000", "114914.210000", "114918.210000", "114922.210000", "114926.210000", "114930.210000", "114934.210000", "114938.210000", "114942.210000", "114946.210000", "114950.210000", "114954.210000", "114958.210000", "115002.210000", "115006.210000", "115010.210000", "115014.210000", "115018.210000", "115022.210000", "115026.210000", "115030.210000", "115034.210000", "115038.210000", "115042.210000", "115046.210000", "115050.210000", "115054.210000", "115058.210000", "115102.210000", "115106.210000", "115110.210000", "115114.210000", "115118.210000", "115122.210000", "115126.210000", "115130.210000", "115134.210000", "115138.210000", "115142.210000", "115146.210000", "115150.210000", "115154.210000", "115158.210000", "115202.210000", "115206.210000", "115210.210000", "115214.210000", "115218.210000", "115222.210000", "115226.210000", "115230.210000", "115234.210000", "115238.210000", "115242.210000", "115246.210000", "115250.210000", "115254.210000", "115258.210000", "115302.210000", "115306.210000", "115310.210000", "115314.210000", "115318.210000", "115322.210000", "115326.210000", "115330.210000", "115334.210000", "115338.210000", "115342.210000", "115346.210000", "115350.210000", "115354.210000", "115358.210000", "115402.210000", "115406.210000", "115410.210000", "115414.210000", "115418.210000", "115422.210000", "115426.210000", "115430.210000", "115434.210000", "115438.210000", "115442.210000", "115446.210000", "115450.210000", "115454.210000", "115458.210000", "115502.210000", "115506.210000", "115510.210000", "115514.210000", "115518.210000", "115522.210000", "115526.210000", "115530.210000", "115534.210000", "115538.210000", "115542.210000", "115546.210000", "115550.210000", "115554.210000", "115558.210000", "115602.210000", "115606.210000", "115610.210000", "115614.210000", "115618.210000", "115622.210000", "115626.210000", "115630.210000", "115634.210000", "115638.210000", "115642.210000", "115646.210000", "115650.210000", "115654.210000", "115658.210000", "115702.210000", "115706.210000", "115710.210000", "115714.210000", "115718.210000", "115722.210000", "115726.210000", "115730.210000", "115734.210000", "115738.210000", "115742.210000", "115746.210000", "115750.210000", "115754.210000", "115758.210000", "115802.210000", "115806.210000", "115810.210000", "115814.210000", "115818.210000", "115822.210000", "115826.210000", "115830.210000", "115834.210000", "115838.210000", "115842.210000", "115846.210000", "115850.210000", "115854.210000", "115858.210000", "115902.210000", "115906.210000", "115910.210000", "115914.210000", "115918.210000", "115922.210000", "115926.210000", "115930.210000", "115934.210000", "115938.210000", "115942.210000", "115946.210000", "115950.210000", "115954.210000", "115958.210000", "120002.210000", "120006.210000", "120010.210000", "120014.210000", "120018.210000", "120022.210000", "120026.210000", "120030.210000", "120034.210000", "120038.210000", "120042.210000", "120046.210000", "120050.210000", "120054.210000", "120058.210000", "120102.210000", "120106.210000", "120110.210000", "120114.210000", "120118.210000", "120122.210000", "120126.210000", "120130.210000", "120134.210000", "120138.210000", "120142.210000", "120146.210000", "120150.210000", "120154.210000", "120158.210000", "120202.210000", "120206.210000", "120210.210000", "120214.210000", "120218.210000", "120222.210000", "120226.210000", "120230.210000", "120234.210000", "120238.210000", "120242.210000", "120246.210000", "120250.210000", "120254.210000", "120258.210000", "120302.210000", "120306.210000", "120310.210000", "120314.210000", "120318.210000", "120322.210000", "120326.210000", "120330.210000", "120334.210000", "120338.210000", "120342.210000", "120346.210000", "120350.210000", "120354.210000", "120358.210000", "120402.210000", "120406.210000", "120410.210000", "120414.210000", "120418.210000", "120422.210000", "120426.210000", "120430.210000", "120434.210000", "120438.210000", "120442.210000", "120446.210000", "120450.210000", "120454.210000", "120458.210000", "120502.210000", "120506.210000", "120510.210000", "120514.210000", "120518.210000", "120522.210000", "120526.210000", "120530.210000", "120534.210000", "120538.210000", "120542.210000", "120546.210000", "120550.210000", "120554.210000", "120558.210000", "120602.210000", "120606.210000", "120610.210000", "120614.210000", "120618.210000", "120622.210000", "120626.210000", "120630.210000", "120634.210000", "120638.210000", "120642.210000", "120646.210000", "120650.210000", "120654.210000", "120658.210000", "120702.210000", "120706.210000", "120710.210000", "120714.210000", "120718.210000", "120722.210000", "120726.210000", "120730.210000", "120734.210000", "120738.210000", "120742.210000", "120746.210000", "120750.210000", "120754.210000", "120758.210000", "120802.210000", "120806.210000", "120810.210000", "120814.210000", "120818.210000", "120822.210000", "120826.210000", "120830.210000", "120834.210000", "120838.210000", "120842.210000", "120846.210000", "120850.210000", "120854.210000", "120858.210000", "120902.210000", "120906.210000", "120910.210000", "120914.210000", "120918.210000", "120922.210000", "120926.210000", "120930.210000", "120934.210000", "120938.210000", "120942.210000", "120946.210000", "120950.210000", "120954.210000", "120958.210000", "121002.210000", "121006.210000", "121010.210000", "121014.210000", "121018.210000", "121022.210000", "121026.210000", "121030.210000", "121034.210000", "121038.210000", "121042.210000", "121046.210000", "121050.210000", "121054.210000", "121058.210000", "121102.210000", "121106.210000", "121110.210000", "121114.210000", "121118.210000", "121122.210000", "121126.210000", "121130.210000", "121134.210000", "121138.210000", "121142.210000", "121146.210000", "121150.210000", "121154.210000", "121158.210000", "121202.210000", "121206.210000", "121210.210000", "121214.210000", "121218.210000", "121222.210000", "121226.210000", "121230.210000", "121234.210000", "121238.210000", "121242.210000", "121246.210000", "121250.210000", "121254.210000", "121258.210000", "121302.210000", "121306.210000", "121310.210000", "121314.210000", "121318.210000", "121322.210000", "121326.210000", "121330.210000", "121334.210000", "121338.210000", "121342.210000", "121346.210000", "121350.210000", "121354.210000", "121358.210000", "121402.210000", "121406.210000", "121410.210000", "121414.210000", "121418.210000", "121422.210000", "121426.210000", "121430.210000", "121434.210000", "121438.210000", "121442.210000", "121446.210000", "121450.210000", "121454.210000", "121458.210000", "121502.210000", "121506.210000", "121510.210000", "121514.210000", "121518.210000", "121522.210000", "121526.210000", "121530.210000", "121534.210000", "121538.210000", "121542.210000", "121546.210000", "121550.210000", "121554.210000", "121558.210000", "121602.210000", "121606.210000", "121610.210000", "121614.210000", "121618.210000", "121622.210000", "121626.210000", "121630.210000", "121634.210000", "121638.210000", "121642.210000", "121646.210000", "121650.210000", "121654.210000", "121658.210000", "121702.210000", "121706.210000", "121710.210000", "121714.210000", "121718.210000", "121722.210000", "121726.210000", "121730.210000", "121734.210000", "121738.210000", "121742.210000", "121746.210000", "121750.210000", "121754.210000", "121758.210000", "121802.210000", "121806.210000", "121810.210000